Time (s)	ECG	reBAP	Markers
0	0.75	0	
0.005	1	0	
0.01	0	0	
0.015	-1.25	0	
0.02	-1.25	0	
0.025	-0.5	0	
0.03	-0.5	0	
0.035	-1.75	0	
0.04	-1.75	0	
0.045	-0.75	0	
0.05	-1	0	
0.055	-2.25	0	
0.06	-2.25	0	
0.065	-1.25	0	
0.07	-1.5	0	
0.075	-2.5	0	
0.08	-2	0	
0.085	-1	0	
0.09	-1.25	0	
0.095	-2.25	0	
0.1	-2.25	0	
0.105	-1	0	
0.11	-1.25	0	
0.115	-2	0	
0.12	-2	0	
0.125	-1	0	
0.13	-1.25	0	
0.135	-1.75	0	
0.14	-1.5	0	
0.145	-0.75	0	
0.15	-1	0	
0.155	-1.75	0	
0.16	-1.75	0	
0.165	-1	0	
0.17	-1.25	0	
0.175	-2	0	
0.18	-1.75	0	
0.185	-0.75	0	
0.19	-1	0	
0.195	-1.5	0	
0.2	-1.5	0	
0.205	-0.75	0	
0.21	-1.25	0	
0.215	-1.75	0	
0.22	-1.75	0	
0.225	-0.75	0	
0.23	-1.25	0	
0.235	-2.25	0	
0.24	-2.25	0	
0.245	-1	0	
0.25	-1.5	0	
0.255	-2.25	0	
0.26	-2.25	0.3	
0.265	-1	0.3	
0.27	-1.25	0.3	
0.275	-2	0.5	
0.28	-1.75	0.3	
0.285	-1	0.8	
0.29	-1.5	0.5	
0.295	-2.25	0.8	
0.3	-2	1.3	
0.305	-1.25	2	
0.31	-1.25	3	
0.315	-1.75	4.3	
0.32	-1.5	5.5	
0.325	-0.75	6.8	
0.33	-1.25	7.8	
0.335	-2.25	8.5	
0.34	-2	9.8	
0.345	-0.75	10.8	
0.35	-1	11.5	
0.355	-1.75	12.5	
0.36	-1.25	13.3	
0.365	-0.25	14.3	
0.37	-1	15	
0.375	-2	16	
0.38	-1.75	16.8	
0.385	-0.5	17.8	
0.39	-0.5	18.5	
0.395	-1.25	19	
0.4	-1.25	19.8	
0.405	-0.5	20.3	
0.41	-0.5	21	
0.415	-1.5	21.8	
0.42	-1.5	22.5	
0.425	-0.5	22.8	
0.43	-0.5	23.3	
0.435	-1.5	24	
0.44	-1.5	24.3	
0.445	-0.75	24.5	
0.45	-0.75	25	
0.455	-1	25.3	
0.46	-1	25.5	
0.465	-0.5	25.8	
0.47	-0.25	25.8	
0.475	-0.25	26	
0.48	-0.5	26.3	
0.485	-0.5	26.8	
0.49	-0.5	26.8	
0.495	-0.5	27	
0.5	-0.5	27	
0.505	0.75	27.3	
0.51	0.75	27.3	
0.515	1.25	27.3	
0.52	3	27.5	
0.525	4.5	27.3	
0.53	4.5	27.3	
0.535	3.25	27.5	
0.54	3.25	27.5	
0.545	3.5	27.8	
0.55	3.5	27.8	
0.555	0.75	27.8	
0.56	-1.5	27.8	
0.565	-2.25	27.8	
0.57	-3.25	27.8	
0.575	-4.75	27.8	
0.58	-5	27.8	
0.585	-3.5	27.8	
0.59	-3	28	
0.595	-3.25	28	
0.6	-3.25	28	
0.605	-2.5	28	
0.61	-2.5	28	
0.615	-3.25	28	
0.62	-3.25	28	
0.625	-2.25	28	
0.63	-2.25	28	
0.635	-2.5	27.8	
0.64	-2.5	27.8	
0.645	-1.5	27.8	
0.65	-2.5	27.8	
0.655	-5.75	27.8	
0.66	-9	27.8	
0.665	-10.5	27.8	
0.67	-10.5	27.5	
0.675	-0.5	27.5	
0.68	22	27.5	
0.685	57	27.5	
0.69	89.75	27.5	
0.695	84.75	27.5	
0.7	69.25	27.5	
0.705	54.75	27.5	
0.71	34.5	27.5	
0.715	15	27.5	
0.72	2.5	27.5	
0.725	-2.5	27.5	
0.73	-4.25	27.5	
0.735	-6.5	27.5	
0.74	-6.5	27.5	
0.745	-4.25	27.5	
0.75	-2.5	27.5	
0.755	-2.25	27.3	
0.76	-1.25	27.5	
0.765	-0.25	27.8	
0.77	0	27.5	
0.775	-0.25	27.5	
0.78	-0.25	27.5	
0.785	1	27.5	
0.79	1	27.5	
0.795	0.75	27.5	
0.8	0.75	27.5	
0.805	1.75	27.5	
0.81	1.75	27.5	
0.815	1.75	27.5	
0.82	1.75	27.5	
0.825	2.75	27.5	
0.83	2.75	27.5	
0.835	2.25	27.5	
0.84	2.25	27.5	
0.845	3	27.5	
0.85	3	27.5	
0.855	2.75	27.5	
0.86	2.75	27.5	
0.865	3.75	27.5	
0.87	3.75	27.5	
0.875	3.5	27.5	
0.88	3.5	27.5	
0.885	4.75	27.5	
0.89	5	27.5	
0.895	5	27.5	
0.9	5.25	27.5	
0.905	7	27.5	
0.91	7.5	27.5	
0.915	7	27.3	
0.92	8	27.5	
0.925	9.5	27.8	
0.93	10.25	27.5	
0.935	10.25	27.5	
0.94	11	27.5	
0.945	12.5	27.5	
0.95	12.75	27.3	
0.955	12.25	27.3	
0.96	13.25	27.3	
0.965	14.75	27.3	
0.97	14.75	27.3	
0.975	14	27.8	
0.98	13.75	27.5	
0.985	13.75	27.5	
0.99	12.5	27.5	
0.995	10.5	27.5	
1	9.25	27.8	
1.005	8.75	27.8	
1.01	7.25	27.8	
1.015	5	27.8	
1.02	4.25	27.5	
1.025	4.25	27.5	
1.03	3.5	27.5	
1.035	2	27.5	
1.04	2	27.3	
1.045	2.5	27.3	
1.05	1.75	27.8	
1.055	0.75	27.5	
1.06	0.75	27.5	
1.065	2	27.5	
1.07	1.75	27.5	
1.075	0.75	27.5	
1.08	0.75	27.3	
1.085	1.5	27.5	
1.09	1.25	27.5	
1.095	0.5	27.3	
1.1	0.75	27.8	
1.105	1.75	27.5	
1.11	1.5	27.5	
1.115	0.5	27.5	
1.12	0.75	27.5	
1.125	1.5	27.5	
1.13	1	27.5	
1.135	0.25	27.5	
1.14	0.5	27.3	
1.145	1.5	27.3	
1.15	1	27.3	
1.155	0.25	27.3	
1.16	0.5	27.3	
1.165	1.25	27.3	
1.17	1	27.3	
1.175	0	27.5	
1.18	0.25	27.5	
1.185	1	27.5	
1.19	0.75	27.5	
1.195	-0.25	27.3	
1.2	0	27.3	
1.205	1	27.3	
1.21	0.5	27.3	
1.215	-0.25	27.3	
1.22	-0.25	27.3	
1.225	0.75	27.3	
1.23	0.75	27.3	
1.235	0.25	27.3	
1.24	0	27.3	
1.245	1	27.3	
1.25	0.75	27.3	
1.255	-0.25	27.3	
1.26	-0.25	27.3	
1.265	0.75	27.3	
1.27	0.25	27.3	
1.275	-0.5	27.3	
1.28	-0.5	27.3	
1.285	0.25	27.3	
1.29	0.25	27.3	
1.295	-0.5	27.3	
1.3	-0.5	27.3	
1.305	0.5	27.3	
1.31	0	27.5	
1.315	-0.75	27.5	
1.32	-0.5	27.5	
1.325	0.5	27.5	
1.33	0.25	27.5	
1.335	-0.75	27.5	
1.34	-0.5	27.5	
1.345	0	27.3	
1.35	0.25	27.3	
1.355	-0.5	27.3	
1.36	-0.25	27.3	
1.365	0.75	27.3	
1.37	0.25	27.3	
1.375	-0.75	27.3	
1.38	-0.75	27.3	
1.385	0.25	27.3	
1.39	-0.25	27.3	
1.395	-0.75	27.3	
1.4	-0.5	27.3	
1.405	0.5	27.3	
1.41	0.25	27.3	
1.415	-0.75	27.3	
1.42	-0.75	27.3	
1.425	0	27.3	
1.43	0	27.3	
1.435	-0.75	27.3	
1.44	-0.75	27.3	
1.445	0	27.3	
1.45	0	27.3	
1.455	-0.75	27.3	
1.46	-0.75	27.3	
1.465	-0.25	27.3	
1.47	-0.25	27	
1.475	-0.75	27.3	
1.48	-0.75	27.3	
1.485	-0.25	27.3	
1.49	-0.25	27.3	
1.495	-1	27.3	
1.5	-1	27.3	
1.505	-0.25	27.3	
1.51	-0.25	27.3	
1.515	-0.5	27.3	
1.52	-0.5	27	
1.525	-0.25	27	
1.53	-0.25	27	
1.535	-1	27	
1.54	-1	27	
1.545	-0.5	27	
1.55	-0.5	27	
1.555	-1.25	27	
1.56	-1.25	27	
1.565	-0.25	27	
1.57	0	27	
1.575	-0.25	27	
1.58	0	27	
1.585	2	27	
1.59	3.25	27	
1.595	2.75	27	
1.6	1.75	27	
1.605	1.75	27	
1.61	1	27	
1.615	0.25	27	
1.62	0.25	27	
1.625	0	27	
1.63	-2.5	27	
1.635	-5	27	
1.64	-5.75	27	
1.645	-5.5	27	
1.65	-5.5	27	
1.655	-5.5	27	
1.66	-4.5	27	
1.665	-3.25	27.3	
1.67	-3.25	27.3	
1.675	-3.75	27.3	
1.68	-3.75	27.3	
1.685	-3.25	27	
1.69	-3.25	27	
1.695	-3.5	27	
1.7	-3.5	27	
1.705	-2.75	27	
1.71	-2.75	27	
1.715	-3.25	27	
1.72	-4	27.3	
1.725	-5	27.3	
1.73	-7.75	27.3	
1.735	-11.25	27.3	
1.74	-12.25	27	
1.745	-4.75	27	
1.75	14.5	27	
1.755	44	27	
1.76	81	27	
1.765	88.75	27	
1.77	72	27	
1.775	53.25	27	
1.78	32.25	27	
1.785	13	27	
1.79	-0.5	27	
1.795	-7	27	
1.8	-7.75	27.3	
1.805	-7.75	27.3	
1.81	-7.5	27.3	
1.815	-6.5	27	
1.82	-4.25	27	
1.825	-2.5	27	
1.83	-2.25	27	
1.835	-2.25	27	
1.84	-2.25	27	
1.845	-1	27	
1.85	-1	27.3	
1.855	-1.25	27.3	
1.86	-1.25	27.3	
1.865	-0.25	27	
1.87	-0.25	27	
1.875	-0.5	27	
1.88	-0.5	27.3	
1.885	0.75	27.3	
1.89	0.75	27.3	
1.895	0.25	27.3	
1.9	0.25	27.3	
1.905	1.25	27	
1.91	1	27	
1.915	0.5	27	
1.92	0.75	27	
1.925	2	27.3	
1.93	2	27.3	
1.935	1.5	27.3	
1.94	2	27.3	
1.945	3.25	27.3	
1.95	3	27.3	
1.955	2.5	27.3	
1.96	2.75	27.3	
1.965	4.75	27.3	
1.97	5	27.3	
1.975	4.75	27.3	
1.98	5.5	27.3	
1.985	7.5	27.3	
1.99	8.25	27.3	
1.995	8.25	27.3	
2	9	27.3	
2.005	10.75	27.3	
2.01	11.5	27.3	
2.015	11.5	27.3	
2.02	12.25	27.3	
2.025	14.25	27.3	
2.03	14.5	27.3	
2.035	14.25	27.3	
2.04	14.5	27.3	
2.045	15.5	27.3	
2.05	14.75	27.3	
2.055	13	27.3	
2.06	11.75	27.3	
2.065	11.25	27.3	
2.07	9.5	27.3	
2.075	7	27.3	
2.08	5.5	27.3	
2.085	5	27.3	
2.09	3.75	27.3	
2.095	1.5	27.3	
2.1	0.75	27.3	
2.105	0.75	27.3	
2.11	0	27.3	
2.115	-1.25	27	
2.12	-1.75	27	
2.125	-0.5	27	
2.13	-1.25	27	
2.135	-2.25	27	
2.14	-2.25	27	
2.145	-1.5	27	
2.15	-2	27	
2.155	-2.75	27	
2.16	-2.75	27	
2.165	-1.75	27	
2.17	-2	27	
2.175	-3	27	
2.18	-3	27	
2.185	-2.25	27	
2.19	-2.25	27	
2.195	-3.25	27	
2.2	-3.25	27.3	
2.205	-2.25	27.3	
2.21	-2.5	27.3	
2.215	-3.75	27.3	
2.22	-3.75	27.3	
2.225	-2.75	27.3	
2.23	-3	27.3	
2.235	-4	27.3	
2.24	-3.75	27	
2.245	-3.25	27	
2.25	-3.5	27	
2.255	-4.5	27	
2.26	-4.5	27	
2.265	-3.5	27	
2.27	-4	27	
2.275	-4.75	27.3	
2.28	-4.75	27.3	
2.285	-4	27	
2.29	-4	27	
2.295	-5	27	
2.3	-5	27	
2.305	-4	27	
2.31	-4	27	
2.315	-5	27	
2.32	-5.25	27	
2.325	-4	27	
2.33	-4.75	27	
2.335	-5.75	27	
2.34	-5.5	27	
2.345	-4.5	27	
2.35	-4.75	27	
2.355	-5.75	27	
2.36	-5.75	27.3	
2.365	-4.75	27.3	
2.37	-5.25	27.3	
2.375	-6	27.3	
2.38	-6.25	27.3	
2.385	-5.25	27	
2.39	-5.5	27	
2.395	-6.5	27	
2.4	-6.25	27	
2.405	-5.25	27	
2.41	-5.25	27	
2.415	-6.25	27	
2.42	-6.25	27	
2.425	-5.5	27	
2.43	-5.5	27	
2.435	-6.25	27.3	
2.44	-6.25	27.3	
2.445	-5.75	27.3	
2.45	-5.75	27.3	
2.455	-6.5	27.3	
2.46	-6.5	27.3	
2.465	-6	27	
2.47	-6	27	
2.475	-6.5	27	
2.48	-6.5	27	
2.485	-5.75	27	
2.49	-5.75	27	
2.495	-6.25	27	
2.5	-6.25	27	
2.505	-5.75	27	
2.51	-5.75	27	
2.515	-6.5	27	
2.52	-6.5	27	
2.525	-5.75	27	
2.53	-5.75	27	
2.535	-6.5	27.3	
2.54	-6.5	27.3	
2.545	-5.75	27.3	
2.55	-5.75	27.3	
2.555	-6.5	27.3	
2.56	-6.5	27.3	
2.565	-5.75	27	
2.57	-5.75	27	
2.575	-6.25	27	
2.58	-6.25	27	
2.585	-5.5	27	
2.59	-5.5	27	
2.595	-6.25	27	
2.6	-6.25	27	
2.605	-5.25	27	
2.61	-5.25	27.3	
2.615	-6	27.3	
2.62	-6	27.3	
2.625	-5.25	27.3	
2.63	-5.25	27.3	
2.635	-6	27.3	
2.64	-6	27.3	
2.645	-5.25	27.3	
2.65	-5.25	27.3	
2.655	-5.25	27.3	
2.66	-5.25	27.3	
2.665	-3.5	27.3	
2.67	-2.5	27.3	
2.675	-2.25	27.3	
2.68	-2.25	27.3	
2.685	-2	27.3	
2.69	-3	27.3	
2.695	-4.75	27.3	
2.7	-4.75	27.3	
2.705	-3.75	27.3	
2.71	-5.25	27.3	
2.715	-7.75	27.3	
2.72	-9.25	27.3	
2.725	-9.25	27.3	
2.73	-9.25	27.3	
2.735	-10	27.3	
2.74	-9.5	27.3	
2.745	-7.75	27.3	
2.75	-7.25	27.3	
2.755	-7.5	27.3	
2.76	-7.5	27.3	
2.765	-6.5	27	
2.77	-6.5	27	
2.775	-7	27	
2.78	-7	27	
2.785	-6	27.3	
2.79	-6	27.3	
2.795	-6	27.3	
2.8	-6	27.3	
2.805	-5.75	27.3	
2.81	-7.5	27	
2.815	-11	27	
2.82	-13.5	27	
2.825	-13.5	27	
2.83	-5.75	27.3	
2.835	14.5	27.3	
2.84	46.25	27.3	
2.845	82	27	
2.85	82.5	27	
2.855	64.75	27	
2.86	46.5	27	
2.865	26.25	27	
2.87	7.25	27.5	
2.875	-5.5	28.8	
2.88	-9.5	30.5	
2.885	-9.25	32	
2.89	-9.5	33	
2.895	-9.5	33.8	
2.9	-8	33.8	
2.905	-5	33.5	
2.91	-4	33.8	
2.915	-4.25	34.3	
2.92	-3.75	34.3	
2.925	-2.5	34.8	
2.93	-2.75	35.3	
2.935	-3.5	35.5	
2.94	-3.25	36	
2.945	-2	36.3	
2.95	-2	36.8	
2.955	-2.75	37	
2.96	-2.5	37.3	
2.965	-1.25	37.5	
2.97	-1	37.8	
2.975	-1.75	37.8	
2.98	-1.75	38	
2.985	-0.5	38.3	
2.99	-0.5	38.8	
2.995	-1.25	38.8	
3	-1	38.8	
3.005	0.25	39	
3.01	0.5	39	
3.015	-0.25	39.3	
3.02	0	39.3	
3.025	1	39.3	
3.03	1.25	39.5	
3.035	0.75	39.5	
3.04	1	39.5	
3.045	2.5	39.5	
3.05	2.75	39.5	
3.055	2.5	39.8	
3.06	3.25	39.8	
3.065	4.75	39.3	
3.07	5.5	39.5	
3.075	5.75	39.5	
3.08	6.75	39.5	
3.085	9	39.5	
3.09	10	39.5	
3.095	9.75	39.5	
3.1	10.5	39.8	
3.105	12.25	39.5	
3.11	12.5	39.5	
3.115	12.5	39.5	
3.12	12.75	39.5	
3.125	13.75	39.5	
3.13	13.5	39.8	
3.135	12	39.8	
3.14	11	39.8	
3.145	10.5	39.8	
3.15	9	39.8	
3.155	6.75	39.8	
3.16	5	39.8	
3.165	4.5	39.8	
3.17	2.75	39.8	
3.175	0.25	39.8	
3.18	-1	39.8	
3.185	-0.75	39.8	
3.19	-1.75	39.8	
3.195	-3.25	39.5	
3.2	-3.5	39.5	
3.205	-2.75	39.5	
3.21	-3.5	39.5	
3.215	-4.5	39.8	
3.22	-4.75	39.8	
3.225	-4	39.8	
3.23	-4.5	39.8	
3.235	-5.75	39.8	
3.24	-5.75	39.8	
3.245	-4.75	39.8	
3.25	-5.25	39.8	
3.255	-6	39.8	
3.26	-6	39.8	
3.265	-5.25	39.8	
3.27	-5.75	39.8	
3.275	-6.75	39.8	
3.28	-6.25	39.5	
3.285	-5.5	39.5	
3.29	-5.75	39.5	
3.295	-6.75	39.5	
3.3	-7.25	39.5	
3.305	-6.5	39.5	
3.31	-6.75	39.5	
3.315	-7.5	39.8	
3.32	-7.5	39.8	
3.325	-6.5	39.8	
3.33	-7	39.8	
3.335	-8	39.8	
3.34	-8	39.8	
3.345	-7	39.8	
3.35	-7.5	39.8	
3.355	-8.75	39.8	
3.36	-9	39.5	
3.365	-8.25	39.5	
3.37	-8.25	39.5	
3.375	-9.5	39.5	
3.38	-9.5	39.8	
3.385	-8.75	39.8	
3.39	-9.25	39.8	
3.395	-10	39.8	
3.4	-10.25	39.8	
3.405	-9.25	39.8	
3.41	-10	39.8	
3.415	-11	39.5	
3.42	-11.25	39.5	
3.425	-9.75	39.5	
3.43	-10.5	39.5	
3.435	-11.75	39.8	
3.44	-12	39.8	
3.445	-11.25	39.8	
3.45	-11.5	39.8	
3.455	-12.75	39.8	
3.46	-13	39.8	
3.465	-12.25	39.5	
3.47	-12.5	39.5	
3.475	-13.5	39.5	
3.48	-13.5	39.5	
3.485	-12.75	39.5	
3.49	-13.25	39.5	
3.495	-14.25	39.8	
3.5	-14.75	39.8	
3.505	-13.75	39.8	
3.51	-14	39.8	
3.515	-15.25	39.8	
3.52	-15.25	39.5	
3.525	-14.75	39.5	
3.53	-15.25	39.8	
3.535	-16	39.8	
3.54	-16	39.5	
3.545	-15.5	39.5	
3.55	-16	39.5	
3.555	-17	39.5	
3.56	-17	39.5	
3.565	-16	39.5	
3.57	-16.25	39.5	
3.575	-17.5	39.8	
3.58	-17.75	39.8	
3.585	-17	39.5	
3.59	-17.5	39.5	
3.595	-18.5	39.8	
3.6	-18.5	39.8	
3.605	-17.75	39.8	
3.61	-18.25	39.8	
3.615	-19.5	39.8	
3.62	-19.75	39.8	
3.625	-18.5	39.5	
3.63	-19	39.5	
3.635	-20.25	39.5	
3.64	-20.25	39.5	
3.645	-19.5	39.5	
3.65	-19.75	39.8	
3.655	-20.75	39.8	
3.66	-21	39.8	
3.665	-20.25	39.5	
3.67	-20.75	39.5	
3.675	-21.5	39.8	
3.68	-21.75	39.8	
3.685	-20.75	39.8	
3.69	-21.25	39.8	
3.695	-22.25	39.8	
3.7	-22.5	39.8	
3.705	-22	39.8	
3.71	-22.25	39.5	
3.715	-23.25	39.5	
3.72	-23.25	39.5	
3.725	-22.75	39.5	
3.73	-23	39.8	
3.735	-24	39.8	
3.74	-23.75	39.8	
3.745	-23	39.8	
3.75	-23	39.8	
3.755	-23.25	39.8	
3.76	-21.75	39.8	
3.765	-21.5	39.8	
3.77	-22.75	39.8	
3.775	-25	39.8	
3.78	-26.75	39.8	
3.785	-25.75	39.8	
3.79	-25.5	39.8	
3.795	-27.5	39.8	
3.8	-29.5	39.8	
3.805	-30	39.8	
3.81	-32	39.8	
3.815	-33	39.8	
3.82	-33.25	39.8	
3.825	-31.75	39.8	
3.83	-31.25	39.8	
3.835	-31.75	39.8	
3.84	-31.5	39.8	
3.845	-30.25	39.8	
3.85	-30.5	39.8	
3.855	-31.5	39.8	
3.86	-31.5	39.5	
3.865	-30.75	39.5	
3.87	-31	39.5	
3.875	-31.75	39.5	
3.88	-31.5	39.8	
3.885	-30.75	39.8	
3.89	-32	39.8	
3.895	-35.5	39.8	
3.9	-39	39.8	
3.905	-41	39.8	
3.91	-42	39.8	
3.915	-36	39.5	
3.92	-16.25	39.5	
3.925	15.5	39.5	
3.93	52.5	39.5	
3.935	55.5	39.8	
3.94	39	39.8	
3.945	24.5	39.8	
3.95	5.25	39.8	
3.955	-15.25	39.8	
3.96	-29.25	39.8	
3.965	-35.75	39.8	
3.97	-37.75	39.8	
3.975	-40	39.8	
3.98	-40	39.8	
3.985	-38	39.8	
3.99	-36.25	39.8	
3.995	-36	39.8	
4	-35.5	39.8	
4.005	-34.5	39.5	
4.01	-34.5	39.5	
4.015	-35	39.5	
4.02	-35	39.5	
4.025	-34.25	39.5	
4.03	-34.25	39.5	
4.035	-34.25	39.5	
4.04	-34.25	39.8	
4.045	-33.75	39.8	
4.05	-33.75	39.8	
4.055	-34.5	39.8	
4.06	-34.75	39.8	
4.065	-34.25	39.8	
4.07	-34.25	39.5	
4.075	-34.75	39.5	
4.08	-34.75	39.5	
4.085	-33.75	39.5	
4.09	-33.75	39.5	
4.095	-34.5	39.5	
4.1	-34.75	39.5	
4.105	-34.25	39.8	
4.11	-34	39.8	
4.115	-34.25	39.8	
4.12	-34.25	39.8	
4.125	-33.5	39.8	
4.13	-33.5	39.8	
4.135	-33.5	39.8	
4.14	-33.5	39.8	
4.145	-32.5	39.8	
4.15	-32.25	39.8	
4.155	-32	39.8	
4.16	-31.25	39.8	
4.165	-30	39.8	
4.17	-29.25	39.8	
4.175	-29.25	39.8	
4.18	-29.25	39.8	
4.185	-28	39.8	
4.19	-27.5	39.8	
4.195	-27.5	39.8	
4.2	-27.25	39.8	
4.205	-26	39.5	
4.21	-25.5	39.5	
4.215	-26	39.5	
4.22	-26.75	39.5	
4.225	-26.75	39.8	
4.23	-28	39.8	
4.235	-30.5	39.8	
4.24	-31.5	39.8	
4.245	-32	39.8	
4.25	-33.75	39.8	
4.255	-36.5	39.8	
4.26	-37.75	39.5	
4.265	-38	39.5	
4.27	-38.75	39.5	
4.275	-40.75	39.5	
4.28	-41.5	39.5	
4.285	-41.25	39.5	
4.29	-41.5	39.5	
4.295	-42.75	39.5	
4.3	-43.25	39.5	
4.305	-42.75	39.8	
4.31	-42.75	39.8	
4.315	-43.5	39.8	
4.32	-44	39.8	
4.325	-43.5	39.8	
4.33	-43.5	39.5	
4.335	-43.75	39.5	
4.34	-44	39.5	
4.345	-43.75	39.5	
4.35	-43.75	39.5	
4.355	-44.75	39.5	
4.36	-45	39.5	
4.365	-44.5	39.8	
4.37	-44.5	39.8	
4.375	-45.25	39.8	
4.38	-45.25	39.8	
4.385	-44.75	39.5	
4.39	-44.75	39.5	
4.395	-45.5	39.5	
4.4	-45.75	39.5	
4.405	-44.75	39.5	
4.41	-45	39.5	
4.415	-46	39.5	
4.42	-46.25	39.8	
4.425	-45.25	39.8	
4.43	-45.5	39.5	
4.435	-46.25	39.8	
4.44	-46.25	39.8	
4.445	-45.25	39.8	
4.45	-45.5	39.8	
4.455	-46.5	39.8	
4.46	-46.5	39.8	
4.465	-45.5	39.8	
4.47	-45.5	39.5	
4.475	-46.75	39.5	
4.48	-47	39.5	
4.485	-46	39.5	
4.49	-46	39.8	
4.495	-47	39.8	
4.5	-47.25	39.8	
4.505	-46.25	39.8	
4.51	-46.5	39.8	
4.515	-47.5	39.8	
4.52	-47.5	39.8	
4.525	-47	39.8	
4.53	-47.25	39.8	
4.535	-48.25	39.8	
4.54	-48	39.8	
4.545	-47	39.8	
4.55	-47.5	39.8	
4.555	-48.5	39.5	
4.56	-48.5	39.5	
4.565	-47.5	39.5	
4.57	-47.75	39.5	
4.575	-48.5	39.8	
4.58	-48.75	39.8	
4.585	-48	39.8	
4.59	-48	39.8	
4.595	-48.75	39.8	
4.6	-49	39.8	
4.605	-47.75	39.8	
4.61	-48	39.5	
4.615	-49	39.5	
4.62	-49	39.5	
4.625	-48.25	39.5	
4.63	-48.5	39.8	
4.635	-49.5	39.8	
4.64	-49.75	39.8	
4.645	-48.75	39.8	
4.65	-48.5	39.8	
4.655	-49.5	39.8	
4.66	-49.5	39.8	
4.665	-48.5	39.8	
4.67	-48.75	39.5	
4.675	-49.75	39.5	
4.68	-49.75	39.5	
4.685	-48.5	39.5	
4.69	-48.75	39.5	
4.695	-50	39.5	
4.7	-50	39.5	
4.705	-49	39.5	
4.71	-49.25	39.5	
4.715	-50	39.5	
4.72	-49.75	39.5	
4.725	-49	39.5	
4.73	-49.25	39.5	
4.735	-50	39.5	
4.74	-50	39.5	
4.745	-48.75	39.8	
4.75	-49.25	39.8	
4.755	-50.25	39.8	
4.76	-50.25	39.8	
4.765	-49.25	39.8	
4.77	-49.5	39.8	
4.775	-50.5	39.8	
4.78	-50.5	39.5	
4.785	-49.5	39.5	
4.79	-49.5	39.8	
4.795	-50	39.8	
4.8	-49.75	39.8	
4.805	-48.5	39.8	
4.81	-48.75	39.8	
4.815	-49.25	39.8	
4.82	-48	39.8	
4.825	-45.75	39.5	
4.83	-46	39.5	
4.835	-48	39.5	
4.84	-49	39.5	
4.845	-48.5	39.8	
4.85	-48.5	39.8	
4.855	-49	39.8	
4.86	-50.75	39.8	
4.865	-52	39.8	
4.87	-53.75	39.8	
4.875	-55.5	39.8	
4.88	-55.5	39.5	
4.885	-54.5	39.5	
4.89	-53.5	39.5	
4.895	-53.5	39.5	
4.9	-53.25	39.5	
4.905	-52.25	39.5	
4.91	-52.25	39.5	
4.915	-52.75	39.8	
4.92	-52.75	39.8	
4.925	-52.25	39.8	
4.93	-52.25	39.8	
4.935	-52.25	39.8	
4.94	-52.25	39.8	
4.945	-51	39.8	
4.95	-51	39.8	
4.955	-52.25	39.8	
4.96	-54.25	39.8	
4.965	-56.25	39.8	
4.97	-59	39.5	
4.975	-60.75	39.5	
4.98	-53.5	39.5	
4.985	-32	39.5	
4.99	0	39.3	
4.995	37.25	39.3	
5	42.25	40	
5.005	26	41.3	
5.01	8.75	43.3	
5.015	-12.5	45.3	
5.02	-33	46.5	
5.025	-45.5	47.3	
5.03	-52.75	47.3	
5.035	-54.75	46.8	
5.04	-55.5	47	
5.045	-54.75	47.3	
5.05	-53.5	47.5	
5.055	-52.25	47.8	
5.06	-51	48.5	
5.065	-49.25	48.8	
5.07	-49	49.3	
5.075	-49.25	49.5	
5.08	-49.25	50	
5.085	-48.5	50.3	
5.09	-48.25	50.5	
5.095	-48.25	50.8	
5.1	-48.25	50.8	
5.105	-47.25	51.3	
5.11	-47	51.3	
5.115	-47	51.5	
5.12	-47	51.8	
5.125	-46	51.8	
5.13	-46	51.8	
5.135	-46	52	
5.14	-46	52.3	
5.145	-45.25	52.3	
5.15	-45	52.5	
5.155	-45	52.5	
5.16	-45	52.5	
5.165	-44.25	52.5	
5.17	-44	52.5	
5.175	-44	52.5	
5.18	-44	52.3	
5.185	-42.75	52.5	
5.19	-42.5	52.5	
5.195	-42.5	52.5	
5.2	-42	52.8	
5.205	-40.75	52.8	
5.21	-40	52.8	
5.215	-40	52.8	
5.22	-39.5	52.3	
5.225	-37.5	52.5	
5.23	-36.75	52.5	
5.235	-36.5	52.5	
5.24	-35.25	52.8	
5.245	-33.5	52.8	
5.25	-33	52.8	
5.255	-33	52.8	
5.26	-32	52.8	
5.265	-30.25	52.8	
5.27	-30	52.8	
5.275	-30	52.8	
5.28	-30	52.8	
5.285	-30	52.8	
5.29	-30.5	52.8	
5.295	-32.25	53	
5.3	-33.5	52.8	
5.305	-33.75	52.8	
5.31	-35	52.8	
5.315	-37.5	52.8	
5.32	-38.75	52.8	
5.325	-39	52.8	
5.33	-40	52.8	
5.335	-41.75	52.5	
5.34	-42.25	52.5	
5.345	-42.25	52.5	
5.35	-42.25	52.5	
5.355	-43.25	52.8	
5.36	-43.25	52.8	
5.365	-42.75	52.8	
5.37	-42.75	52.8	
5.375	-43.25	52.8	
5.38	-43.25	52.8	
5.385	-42.5	52.8	
5.39	-42.5	52.8	
5.395	-42.5	52.8	
5.4	-42.5	52.8	
5.405	-41.75	52.8	
5.41	-41.75	52.5	
5.415	-42.75	52.5	
5.42	-42.5	52.5	
5.425	-41.25	52.5	
5.43	-41.25	52.3	
5.435	-42	52.5	
5.44	-41.75	53.3	
5.445	-40.75	54.5	
5.45	-40.75	56.5	
5.455	-41.25	59	
5.46	-41.25	60.5	
5.465	-40.25	60.8	
5.47	-40.5	60.8	
5.475	-41	60.8	
5.48	-40.75	60.8	
5.485	-39.5	60.8	
5.49	-39.75	61.3	
5.495	-40.5	61.5	
5.5	-40.25	62	
5.505	-39.25	62.5	
5.51	-39.5	63	
5.515	-40.25	63.3	
5.52	-39.75	63.5	
5.525	-38.75	64	
5.53	-39	64.3	
5.535	-39.5	64.5	
5.54	-39.25	64.8	
5.545	-38	65	
5.55	-37.75	65.3	
5.555	-38.5	65.5	
5.56	-38.25	65.3	
5.565	-37.25	65.5	
5.57	-37.25	65.8	
5.575	-38.25	65.8	
5.58	-38	66	
5.585	-37	66	
5.59	-37	66.3	
5.595	-38	66.3	
5.6	-38	66.3	
5.605	-36.75	66.3	
5.61	-36.5	66.3	
5.615	-37.25	66.3	
5.62	-37	66.3	
5.625	-36	66.5	
5.63	-35.75	66.5	
5.635	-36.75	66.5	
5.64	-36.75	66.5	
5.645	-35.5	66.5	
5.65	-35.5	66.5	
5.655	-36.25	66.5	
5.66	-36	66.5	
5.665	-34.75	66.5	
5.67	-34.75	66.3	
5.675	-35.5	66.5	
5.68	-35.25	66.5	
5.685	-34.25	66.5	
5.69	-34.25	66.5	
5.695	-35.25	66.5	
5.7	-35	66.5	
5.705	-33.75	66.5	
5.71	-33.75	66.3	
5.715	-34.5	66.3	
5.72	-34.25	66.3	
5.725	-32.75	66.3	
5.73	-32.75	66.5	
5.735	-33.5	66.5	
5.74	-33.25	66.5	
5.745	-32.25	66.5	
5.75	-32	66.5	
5.755	-33	66.5	
5.76	-32.75	66.5	
5.765	-31.5	66.5	
5.77	-31.5	66.5	
5.775	-31.75	66.5	
5.78	-31.75	66.5	
5.785	-30.5	66.3	
5.79	-30.5	66.3	
5.795	-31.25	66.3	
5.8	-30.75	66.3	
5.805	-29.5	66.5	
5.81	-29.5	66.5	
5.815	-30.25	66.5	
5.82	-30.25	66.5	
5.825	-29.25	66.5	
5.83	-29.25	66.5	
5.835	-30	66.5	
5.84	-29.75	66.3	
5.845	-28.5	66.3	
5.85	-28	66.5	
5.855	-29	66.5	
5.86	-28.75	66.5	
5.865	-27.25	66.5	
5.87	-27.25	66.5	
5.875	-28	66.5	
5.88	-28	66.5	
5.885	-27	66.3	
5.89	-26.75	66.3	
5.895	-27.5	66.3	
5.9	-27.25	66.3	
5.905	-26.25	66.3	
5.91	-26.25	66.3	
5.915	-26.5	66.5	
5.92	-26.5	66.5	
5.925	-25	66.5	
5.93	-24.25	66.5	
5.935	-24.25	66.5	
5.94	-23.25	66.5	
5.945	-21.5	66.5	
5.95	-21.5	66.5	
5.955	-23	66.5	
5.96	-23.75	66.5	
5.965	-23.75	66.5	
5.97	-23.25	66.5	
5.975	-24	66.5	
5.98	-25.75	66.5	
5.985	-26.5	66.5	
5.99	-27.75	66.5	
5.995	-29.25	66.5	
6	-29.5	66.5	
6.005	-28.5	66.3	
6.01	-27.25	66.3	
6.015	-27.25	66.3	
6.02	-27.25	66.3	
6.025	-26	66.5	
6.03	-25.75	66.5	
6.035	-25.75	66.5	
6.04	-25.75	66.5	
6.045	-24.75	66.5	
6.05	-24.5	66.5	
6.055	-24.5	66.5	
6.06	-24.5	66.5	
6.065	-23.25	66.5	
6.07	-23	66.5	
6.075	-24	66.3	
6.08	-25.75	66.3	
6.085	-27.25	66.3	
6.09	-30	66.3	
6.095	-31.75	66.5	
6.1	-25.5	66.5	
6.105	-4	66.5	
6.11	27	66.5	
6.115	63	66.5	
6.12	69.5	66.5	
6.125	52.75	66.5	
6.13	33	66.3	
6.135	11.25	66.3	
6.14	-9	66.3	
6.145	-20.5	66.3	
6.15	-25	66.5	
6.155	-26	66.3	
6.16	-26.5	66.3	
6.165	-24.75	66.3	
6.17	-23	66.3	
6.175	-21.5	66.5	
6.18	-20.5	66.5	
6.185	-18.75	66.3	
6.19	-18.5	66.5	
6.195	-18.75	66.5	
6.2	-18.75	66.3	
6.205	-17.75	66.3	
6.21	-17.25	66.3	
6.215	-17.5	66.3	
6.22	-17.5	66.3	
6.225	-16.25	66.3	
6.23	-16	66.3	
6.235	-16	66.5	
6.24	-16	66.5	
6.245	-14.75	66.5	
6.25	-14.5	66.5	
6.255	-14.5	66.5	
6.26	-14.5	66.5	
6.265	-13.25	66.5	
6.27	-13	66.3	
6.275	-13	66.3	
6.28	-13	66.3	
6.285	-11.75	66.3	
6.29	-11.5	66.3	
6.295	-11.5	66.3	
6.3	-11.5	66.5	
6.305	-10	66.5	
6.31	-9.75	66.5	
6.315	-9.75	66.5	
6.32	-9.5	66.5	
6.325	-7.75	66.3	
6.33	-6.75	66.3	
6.335	-6.75	66.3	
6.34	-5.75	66.5	
6.345	-4	66.5	
6.35	-2.75	66.5	
6.355	-2.5	66.5	
6.36	-1.5	66.5	
6.365	0.25	66.3	
6.37	1.5	66.3	
6.375	1.75	66.3	
6.38	2.5	66.3	
6.385	4.25	66.3	
6.39	5	66.5	
6.395	5	66.5	
6.4	5	66.5	
6.405	5	66.8	
6.41	4.25	66.5	
6.415	2.5	66.5	
6.42	0.75	66.5	
6.425	0.25	66.5	
6.43	-1.25	66.8	
6.435	-3.5	66.8	
6.44	-4.75	66.8	
6.445	-5	66.3	
6.45	-6	66.3	
6.455	-8	66.3	
6.46	-8.5	66	
6.465	-8	66.3	
6.47	-8.5	66.3	
6.475	-9.75	66.3	
6.48	-9.75	66.3	
6.485	-8.75	66.3	
6.49	-9	66.3	
6.495	-9.75	66.3	
6.5	-10	66.3	
6.505	-9	66.3	
6.51	-9	66.3	
6.515	-9.75	66.3	
6.52	-9.5	66.3	
6.525	-8.25	66.3	
6.53	-8.25	66.3	
6.535	-8.75	66.3	
6.54	-8.75	66	
6.545	-7.5	66	
6.55	-7.5	66.8	
6.555	-8.25	68.3	
6.56	-8	70.8	
6.565	-7	73	
6.57	-7.25	74.8	
6.575	-8.25	75	
6.58	-8	75	
6.585	-7	74.8	
6.59	-6.75	74.8	
6.595	-7.5	75	
6.6	-7.25	75.3	
6.605	-6	75.8	
6.61	-6	76.3	
6.615	-6.75	76.8	
6.62	-6.5	77	
6.625	-5.5	77.5	
6.63	-5.5	77.8	
6.635	-6.25	78.3	
6.64	-6.25	78.5	
6.645	-5.25	78.8	
6.65	-5.25	79	
6.655	-6	79.3	
6.66	-5.75	79.5	
6.665	-4.5	79.8	
6.67	-4.5	79.8	
6.675	-5.5	80	
6.68	-5.5	80	
6.685	-4.25	80.3	
6.69	-4.25	80.3	
6.695	-5.25	80.3	
6.7	-5.25	80.3	
6.705	-4	80.5	
6.71	-4	80.5	
6.715	-4.75	80.5	
6.72	-4.75	80.8	
6.725	-3.25	80.8	
6.73	-3.5	80.8	
6.735	-4.25	80.8	
6.74	-4.25	80.8	
6.745	-2.75	80.8	
6.75	-2.75	80.8	
6.755	-3.75	80.8	
6.76	-3.5	80.8	
6.765	-2.5	80.8	
6.77	-2.5	80.8	
6.775	-3.25	80.8	
6.78	-3	80.8	
6.785	-2	80.8	
6.79	-2	80.8	
6.795	-2.5	80.8	
6.8	-2.5	80.8	
6.805	-1.25	80.8	
6.81	-1.5	80.8	
6.815	-2	80.8	
6.82	-2	80.8	
6.825	-1	80.8	
6.83	-1	80.3	
6.835	-1.75	80.5	
6.84	-1.75	80.5	
6.845	-0.5	80.5	
6.85	-0.5	80.5	
6.855	-1.25	80.5	
6.86	-1.25	80.8	
6.865	-0.25	80.8	
6.87	-0.25	80.8	
6.875	-0.75	80.8	
6.88	-0.75	80.8	
6.885	0.5	80.8	
6.89	0.25	80.5	
6.895	-0.25	80.5	
6.9	-0.25	80.5	
6.905	1.25	80.5	
6.91	1.25	80.5	
6.915	0.5	80.8	
6.92	0.5	80.8	
6.925	1	80.8	
6.93	1.25	80.8	
6.935	0.5	80.8	
6.94	0.5	80.8	
6.945	1.75	80.8	
6.95	1.75	80.5	
6.955	1.5	80.8	
6.96	1.25	80.8	
6.965	2	80.8	
6.97	2	80.8	
6.975	1.75	80.8	
6.98	1.75	80.8	
6.985	2.5	80.8	
6.99	2.75	80.8	
6.995	2.25	80.5	
7	2.25	80.5	
7.005	2.75	80.5	
7.01	2.75	80.5	
7.015	2.5	80.5	
7.02	2.5	80.5	
7.025	3.25	80.8	
7.03	3.25	80.8	
7.035	3	80.8	
7.04	3	80.8	
7.045	3.75	80.8	
7.05	4	80.8	
7.055	4	80.5	
7.06	4.25	80.8	
7.065	6	80.8	
7.07	7.5	80.8	
7.075	7.5	80.8	
7.08	7	80.8	
7.085	7	80.8	
7.09	6	80.8	
7.095	5	80.8	
7.1	5	80.8	
7.105	5	80.8	
7.11	3.25	80.8	
7.115	0.75	80.8	
7.12	-0.25	80.8	
7.125	0	80.8	
7.13	0	80.5	
7.135	0	80.8	
7.14	1.25	80.8	
7.145	2.75	80.8	
7.15	2.75	80.8	
7.155	2.75	80.8	
7.16	2.75	80.8	
7.165	3.25	80.8	
7.17	3.25	80.5	
7.175	3.25	80.5	
7.18	3.25	80.5	
7.185	4.5	80.8	
7.19	4.75	80.8	
7.195	4.75	80.8	
7.2	4.5	80.8	
7.205	4	80.8	
7.21	1.25	80.8	
7.215	-2.5	80.8	
7.22	-4.25	80.8	
7.225	-1	80.8	
7.23	13	80.8	
7.235	38.25	80.8	
7.24	74.25	80.8	
7.245	97.75	80.8	
7.25	85.75	80.8	
7.255	67.5	80.8	
7.26	48.75	80.8	
7.265	29	80.8	
7.27	13	80.8	
7.275	3.25	80.8	
7.28	1.5	80.8	
7.285	1.75	80.5	
7.29	1.75	80.5	
7.295	1.75	80.8	
7.3	3.5	80.8	
7.305	6	80.8	
7.31	7	80.8	
7.315	7	80.8	
7.32	7.25	80.8	
7.325	9	80.8	
7.33	9	80.8	
7.335	8.5	80.8	
7.34	8.5	80.8	
7.345	9.5	80.8	
7.35	9.5	80.8	
7.355	9.5	80.8	
7.36	9.5	80.8	
7.365	10.75	80.8	
7.37	11	80.8	
7.375	11	80.8	
7.38	11	80.5	
7.385	11.75	80.5	
7.39	11.75	80.5	
7.395	11.75	80.5	
7.4	11.75	80.8	
7.405	12.75	80.8	
7.41	13	80.5	
7.415	12.5	80.5	
7.42	12.75	80.5	
7.425	14	80.5	
7.43	14.5	80.8	
7.435	14	80.8	
7.44	14.5	80.8	
7.445	15.75	80.8	
7.45	16	80.8	
7.455	16	80.8	
7.46	17	80.8	
7.465	18.75	80.8	
7.47	19.75	80.8	
7.475	20	80.8	
7.48	21	80.8	
7.485	23	80.5	
7.49	24	80.5	
7.495	24.25	80.8	
7.5	25	80.8	
7.505	26.75	80.8	
7.51	27	80.8	
7.515	26.75	80.8	
7.52	27.25	80.8	
7.525	28.25	80.8	
7.53	28	80.8	
7.535	26.75	81	
7.54	25.75	80.8	
7.545	25.5	81	
7.55	24.25	81	
7.555	21.75	81	
7.56	20	81.3	
7.565	19.5	81.3	
7.57	18	81	
7.575	15.75	81	
7.58	15	80.8	
7.585	15.5	80.5	
7.59	14.75	80.5	
7.595	13.5	80.3	
7.6	13	80.5	
7.605	14	80.5	
7.61	14	80.5	
7.615	12.75	80.5	
7.62	12.75	80.5	
7.625	13.25	80.5	
7.63	13.5	80.5	
7.635	12.5	80.5	
7.64	13	80.5	
7.645	13.75	80.5	
7.65	13.5	80.5	
7.655	12.75	80.5	
7.66	13	80.5	
7.665	14.25	80.3	
7.67	14	80.3	
7.675	12.75	81	
7.68	12.75	82.5	
7.685	13.75	85	
7.69	13.5	87.8	
7.695	12.75	89.3	
7.7	13	89.8	
7.705	14	89.8	
7.71	14	89.3	
7.715	13	89.3	
7.72	13.25	89.5	
7.725	14.25	90	
7.73	14.75	90.5	
7.735	13.75	91	
7.74	13.75	91.5	
7.745	14.5	92	
7.75	14.5	92.3	
7.755	14	92.8	
7.76	14	93	
7.765	15	93.5	
7.77	14.75	93.8	
7.775	14	94	
7.78	14	94	
7.785	14.75	94.3	
7.79	15	94.3	
7.795	14	94.5	
7.8	14	94.8	
7.805	14.75	95	
7.81	14.75	95	
7.815	14	95	
7.82	13.75	95.3	
7.825	15	95.3	
7.83	14.75	95.3	
7.835	14.25	95.3	
7.84	14	95.3	
7.845	15	95.5	
7.85	15	95.5	
7.855	14.25	95.5	
7.86	14.25	95.5	
7.865	15.25	95.5	
7.87	15	95.5	
7.875	14	95.5	
7.88	14	95.8	
7.885	15	95.5	
7.89	15	95.5	
7.895	14.5	95.5	
7.9	14.5	95.5	
7.905	15.25	95.8	
7.91	15.25	95.3	
7.915	14.75	95.5	
7.92	14.75	95.5	
7.925	15.5	95.5	
7.93	15.5	95.5	
7.935	14.5	95.5	
7.94	14.5	95.5	
7.945	15.5	95.5	
7.95	15.75	95.5	
7.955	15.5	95.5	
7.96	15.25	95.5	
7.965	15.25	95.5	
7.97	15.25	95.3	
7.975	15	95.3	
7.98	15	95.3	
7.985	15.75	95.3	
7.99	15.75	95.8	
7.995	15.5	95.5	
8	15.25	95.5	
8.005	15.75	95.5	
8.01	15.75	95.5	
8.015	15.5	95.3	
8.02	15.5	95.3	
8.025	16.25	95.3	
8.03	16.25	95.3	
8.035	15.75	95.8	
8.04	15.75	95.5	
8.045	16.25	95.5	
8.05	16.25	95.5	
8.055	16.25	95.5	
8.06	15.75	95.5	
8.065	16.25	95.5	
8.07	16.5	95.5	
8.075	16	95.5	
8.08	16	95.5	
8.085	16.5	95.5	
8.09	16.5	95.5	
8.095	16.5	95.5	
8.1	16.5	95.5	
8.105	17	95.5	
8.11	17	95.5	
8.115	16.25	95.5	
8.12	16.25	95.5	
8.125	17	95.5	
8.13	17.25	95.5	
8.135	17	95.5	
8.14	17	95.5	
8.145	17.5	95.5	
8.15	17.75	95.3	
8.155	17.75	95.3	
8.16	18	95.3	
8.165	20	95.5	
8.17	20.25	95.5	
8.175	19	95.5	
8.18	17.75	95.5	
8.185	17.75	95.5	
8.19	17.75	95.5	
8.195	17.5	95.5	
8.2	17	95.5	
8.205	15.75	95.5	
8.21	14.25	95.5	
8.215	12.25	95.5	
8.22	12	95.5	
8.225	12.25	95.5	
8.23	12.5	95.5	
8.235	12.75	95.5	
8.24	13.75	95.5	
8.245	15	95.5	
8.25	15.25	95.5	
8.255	15	95.5	
8.26	15	95.5	
8.265	15.75	95.5	
8.27	15.75	95.5	
8.275	15.5	95.5	
8.28	15.5	95.5	
8.285	16.5	95.5	
8.29	17	95.5	
8.295	16.25	95.5	
8.3	14	95.3	
8.305	11.75	95.5	
8.31	8.5	95.5	
8.315	6	95.5	
8.32	10.5	95.5	
8.325	28.5	95.5	
8.33	56.75	95.5	
8.335	93.5	95.5	
8.34	109.5	95.5	
8.345	96	95.5	
8.35	81.25	95.5	
8.355	62.25	95.5	
8.36	41.5	95.3	
8.365	26.5	95.3	
8.37	17.75	95.8	
8.375	14	95.5	
8.38	12.75	95.5	
8.385	12.75	95.5	
8.39	13.75	95.5	
8.395	14.75	95.5	
8.4	16.25	95.5	
8.405	18.25	95.5	
8.41	18.5	95.5	
8.415	17.75	95.5	
8.42	18.25	95.5	
8.425	19.5	95.5	
8.43	19.75	95.5	
8.435	19.25	95.5	
8.44	19.25	95.5	
8.445	20.25	95.5	
8.45	20.5	95.5	
8.455	19.75	95.5	
8.46	19.75	95.5	
8.465	21.25	95.5	
8.47	21.25	95.5	
8.475	20.25	95.5	
8.48	20	95.3	
8.485	21.25	95.3	
8.49	21.25	95.3	
8.495	20.5	95.5	
8.5	20.75	95.5	
8.505	22	95.5	
8.51	22	95.5	
8.515	21.25	95.5	
8.52	21.25	95.5	
8.525	22.25	95.5	
8.53	22.25	95.3	
8.535	22.25	95.3	
8.54	22.5	95.3	
8.545	24	95.3	
8.55	24.5	95.5	
8.555	24.25	95.5	
8.56	25	95.5	
8.565	27	95.3	
8.57	27.25	95.3	
8.575	27.25	95.3	
8.58	27.75	95.3	
8.585	29.5	95.5	
8.59	30.25	95.5	
8.595	30.25	95.5	
8.6	31	95.5	
8.605	32.5	95.5	
8.61	33	95.5	
8.615	32.25	95.5	
8.62	32	95.5	
8.625	32.75	95.5	
8.63	32.25	95.5	
8.635	30.5	95.8	
8.64	29.5	95.8	
8.645	29.5	96	
8.65	28	95.8	
8.655	25.75	95.8	
8.66	24.25	95.8	
8.665	24	96	
8.67	23	96	
8.675	21.25	96	
8.68	20.75	96	
8.685	21	96	
8.69	20.75	95.8	
8.695	19.5	95.5	
8.7	19.25	95.3	
8.705	20	95.3	
8.71	19.5	95.3	
8.715	18.75	95.3	
8.72	18.75	95.3	
8.725	19.75	95.3	
8.73	19.75	95.3	
8.735	18.75	95	
8.74	19	95.3	
8.745	19.75	95.3	
8.75	19.5	95.3	
8.755	18.75	95.3	
8.76	18.5	95.3	
8.765	19.5	95	
8.77	19.25	94.8	
8.775	18.5	95	
8.78	18.5	95.5	
8.785	19.75	97.5	
8.79	19.75	100.3	
8.795	18.5	102.8	
8.8	18.25	104.5	
8.805	19.25	105	
8.81	19.25	104.8	
8.815	18.5	104.5	
8.82	18.5	104.8	
8.825	19.5	104.8	
8.83	19	105.3	
8.835	18.25	105.8	
8.84	18	106.3	
8.845	18.75	106.5	
8.85	18.75	107	
8.855	17.75	107.5	
8.86	17.75	108	
8.865	18.75	108.5	
8.87	19	108.8	
8.875	18.25	109	
8.88	18.25	109.3	
8.885	19.5	109.5	
8.89	19.25	109.8	
8.895	18.5	109.8	
8.9	18	110	
8.905	19	110.3	
8.91	19	110.5	
8.915	18.5	110.8	
8.92	18.5	110.8	
8.925	19	110.8	
8.93	19	110.8	
8.935	18.25	111	
8.94	18.25	111	
8.945	18.5	110.8	
8.95	18.5	110.8	
8.955	18	110.8	
8.96	18	111	
8.965	18.5	111	
8.97	18.5	111	
8.975	18	111	
8.98	17.75	111	
8.985	18.25	111	
8.99	18.5	111	
8.995	18	111	
9	18	111	
9.005	18.5	111.3	
9.01	18.5	111.3	
9.015	18	111.3	
9.02	17.75	111.3	
9.025	18	111.3	
9.03	18	110.8	
9.035	17.5	111	
9.04	17.5	111	
9.045	18	111	
9.05	18.25	110.8	
9.055	17.75	110.8	
9.06	17.5	110.8	
9.065	18	111	
9.07	18	111	
9.075	18	111	
9.08	17.75	111	
9.085	18.25	111	
9.09	18.25	111	
9.095	17.5	111	
9.1	17.5	111	
9.105	18.25	110.8	
9.11	18.25	111	
9.115	17.5	110.8	
9.12	17.5	110.8	
9.125	18	111.3	
9.13	18	111	
9.135	17.5	111	
9.14	17.5	111	
9.145	18	111	
9.15	18	111	
9.155	17.5	110.8	
9.16	17.25	110.8	
9.165	17.75	110.8	
9.17	18	110.8	
9.175	17.5	111	
9.18	17.5	111	
9.185	17.75	111	
9.19	17.75	111	
9.195	17.5	111	
9.2	17.25	111	
9.205	18	111	
9.21	18	111	
9.215	18	111	
9.22	18	111	
9.225	20.25	111	
9.23	22	111	
9.235	21.75	111	
9.24	21	111	
9.245	21	111	
9.25	21	111	
9.255	20	111	
9.26	19.25	111.3	
9.265	18.25	111.3	
9.27	16	111	
9.275	13.5	111	
9.28	12.75	111	
9.285	12.75	111	
9.29	12.75	111	
9.295	12.75	111	
9.3	13.25	111	
9.305	14.25	111	
9.31	14.25	111	
9.315	13.5	111	
9.32	13.25	111	
9.325	13.75	111	
9.33	14	111	
9.335	13.75	111	
9.34	13.75	111	
9.345	14.5	111.3	
9.35	14.75	111.3	
9.355	14.25	110.8	
9.36	13	111	
9.365	11.75	111	
9.37	9	111	
9.375	5.75	111	
9.38	6	111	
9.385	18	111	
9.39	41.75	111	
9.395	74.75	111	
9.4	106.75	111	
9.405	102.75	111	
9.41	83.75	111	
9.415	63.5	111	
9.42	41.5	111	
9.425	24	111	
9.43	13.25	111	
9.435	9	111	
9.44	8.25	111	
9.445	9	111	
9.45	10	111	
9.455	11.25	111	
9.46	12.75	111	
9.465	14.5	111	
9.47	14.75	111	
9.475	14	111	
9.48	14.25	111	
9.485	15.75	111	
9.49	15.75	111	
9.495	15	111	
9.5	15.25	110.8	
9.505	16.25	110.8	
9.51	16.5	110.8	
9.515	16	111	
9.52	16	111	
9.525	17	111	
9.53	17.25	111	
9.535	16.5	111	
9.54	16.75	111	
9.545	18	111	
9.55	18	111	
9.555	17.25	110.8	
9.56	17.25	110.8	
9.565	18.25	111.3	
9.57	18.5	111	
9.575	17.75	111	
9.58	18	111	
9.585	19.25	111	
9.59	19.75	111	
9.595	19	111	
9.6	19.25	111	
9.605	20.75	111	
9.61	21.25	111	
9.615	21.25	111	
9.62	22	111	
9.625	24	111	
9.63	24.75	111	
9.635	24.75	111	
9.64	25.5	111	
9.645	27.5	111	
9.65	28.25	111	
9.655	28	111	
9.66	28	111	
9.665	30.5	111	
9.67	31.25	111	
9.675	30.75	111	
9.68	30.5	111	
9.685	31	111	
9.69	30.25	111	
9.695	28.25	111.3	
9.7	26.75	111.3	
9.705	26.25	111.3	
9.71	25	111.3	
9.715	22.5	111.3	
9.72	21	111.3	
9.725	20.5	111.3	
9.73	19	111.3	
9.735	17	111.3	
9.74	16	111.3	
9.745	16.25	111.3	
9.75	15.75	111.3	
9.755	14.75	111.3	
9.76	14.25	111.3	
9.765	15	111	
9.77	15	110.8	
9.775	14	110.5	
9.78	13.75	110.8	
9.785	14.5	110.5	
9.79	14.5	110.5	
9.795	13.25	110.5	
9.8	13.25	110.8	
9.805	14.25	110.8	
9.81	14.25	110.8	
9.815	13.25	110.8	
9.82	13	110.8	
9.825	13.75	110.5	
9.83	13.75	110.3	
9.835	13	110.3	
9.84	13	111	
9.845	14	112.8	
9.85	14	115.5	
9.855	13	118.5	
9.86	13	120.3	
9.865	14	120.8	
9.87	14	120.8	
9.875	13	120.5	
9.88	13	120.5	
9.885	13.75	120.5	
9.89	13.75	121.3	
9.895	13	121.8	
9.9	12.75	122.3	
9.905	13.75	122.8	
9.91	13.75	123.3	
9.915	12.5	123.8	
9.92	12.25	123.8	
9.925	13.25	124.3	
9.93	13	124.8	
9.935	12.25	125	
9.94	12	125.3	
9.945	13.25	125.5	
9.95	13.25	126	
9.955	12.25	125.8	
9.96	12.25	126	
9.965	13	126.5	
9.97	13	126.5	
9.975	12	126.5	
9.98	12	126.5	
9.985	13	126.5	
9.99	12.75	126.8	
9.995	12	126.8	
10	11.5	126.8	
10.005	12.5	126.8	
10.01	12.5	127	
10.015	11.75	127	
10.02	11.25	127	
10.025	12.25	127	
10.03	12.75	127	
10.035	11.5	127	
10.04	11.25	127	
10.045	12.25	127	
10.05	12.25	127	
10.055	11.5	127	
10.06	11.25	127	
10.065	12.25	127	
10.07	12.25	127	
10.075	11.5	127	
10.08	11.25	127	
10.085	12.25	127	
10.09	12.25	127	
10.095	11.25	127.3	
10.1	11.25	127	
10.105	12.25	127	
10.11	12.25	127	
10.115	11.25	127	
10.12	11.5	127	
10.125	12.5	127	
10.13	12.5	127	
10.135	11.5	127	
10.14	11.5	127	
10.145	12.5	127	
10.15	12.25	127	
10.155	11.75	127	
10.16	11.5	127	
10.165	12.25	127	
10.17	12.25	127	
10.175	11.25	127	
10.18	11.25	127	
10.185	12.25	127	
10.19	12.25	127	
10.195	11.5	127	
10.2	11.25	127	
10.205	12.25	127	
10.21	12	127	
10.215	11	127	
10.22	11	127	
10.225	12	127	
10.23	12	127	
10.235	11	127	
10.24	11	127	
10.245	12	127	
10.25	12	127	
10.255	11.25	127	
10.26	11	127	
10.265	12	127	
10.27	12	127	
10.275	11	127	
10.28	10.75	127	
10.285	11.75	127	
10.29	11.75	127	
10.295	10.75	127	
10.3	10.75	127	
10.305	11.5	127	
10.31	11.5	127	
10.315	11	127	
10.32	11.25	127	
10.325	12.5	127	
10.33	13.5	127	
10.335	14.25	127	
10.34	14.75	127	
10.345	14.75	127	
10.35	13.75	127	
10.355	12	127	
10.36	11.75	127	
10.365	12.75	127	
10.37	12	127	
10.375	8.75	126.8	
10.38	7	126.8	
10.385	6.75	126.8	
10.39	6.5	127	
10.395	5.5	127	
10.4	5.75	127	
10.405	8	127	
10.41	8	127	
10.415	7.5	127	
10.42	7	127	
10.425	8	127	
10.43	8.25	127	
10.435	7.75	127	
10.44	7.25	127	
10.445	8.5	127	
10.45	9.25	127	
10.455	8.25	127	
10.46	8.25	127	
10.465	8.75	127	
10.47	8	127	
10.475	4.5	127	
10.48	1	127	
10.485	0.5	127	
10.49	2.25	127	
10.495	14.75	127	
10.5	40.25	127	
10.505	77.5	127	
10.51	102	127	
10.515	90.5	127	
10.52	70.75	127	
10.525	52.5	127	
10.53	31	127	
10.535	13.5	127	
10.54	4.5	127	
10.545	4.5	127	
10.55	4.25	127	
10.555	3	127	
10.56	3.5	127	
10.565	7	127	
10.57	8.75	127	
10.575	8.25	127.3	
10.58	8	127.3	
10.585	9.25	127	
10.59	10	127	
10.595	9.25	127	
10.6	8.75	127	
10.605	10	127	
10.61	10.5	127	
10.615	9.75	127	
10.62	9.5	127	
10.625	10.75	127	
10.63	11.25	127	
10.635	10.5	127	
10.64	10.25	127	
10.645	11.5	127	
10.65	12	127	
10.655	11.25	127	
10.66	11.25	127	
10.665	12.25	127	
10.67	12.75	127	
10.675	12	127	
10.68	11.75	127	
10.685	13	127	
10.69	13.5	127	
10.695	13	127	
10.7	12.75	127	
10.705	14	127	
10.71	14.75	127	
10.715	14.25	127	
10.72	14.25	127	
10.725	16.5	127	
10.73	17.75	127	
10.735	17.75	127	
10.74	17.75	127	
10.745	20.25	126.8	
10.75	21.25	126.8	
10.755	21	126.8	
10.76	21	127	
10.765	23.5	127	
10.77	24.5	127	
10.775	24.5	127	
10.78	24.5	127	
10.785	25.75	127	
10.79	26	127	
10.795	24.75	127	
10.8	23.75	127	
10.805	23.75	127	
10.81	23.25	127.3	
10.815	20.25	127.3	
10.82	18.25	127.3	
10.825	18.25	127.3	
10.83	17.25	127.5	
10.835	14.25	127.3	
10.84	12.5	127.3	
10.845	12.5	127.3	
10.85	12.5	127.3	
10.855	10.25	127	
10.86	9	127.3	
10.865	9.75	127.3	
10.87	9.75	127	
10.875	8.75	127	
10.88	8.25	127	
10.885	9	127	
10.89	9	127	
10.895	8.5	127	
10.9	8	127	
10.905	9	126.8	
10.91	9	126.8	
10.915	8	126.8	
10.92	8	126.8	
10.925	8.75	126.8	
10.93	8.75	126.8	
10.935	7.5	126.8	
10.94	7.75	126.5	
10.945	8.75	126.5	
10.95	8.5	127	
10.955	7.5	129.3	
10.96	7.75	132.3	
10.965	8.25	135	
10.97	8.5	137.3	
10.975	7.5	138	
10.98	7.25	137.5	
10.985	8	137.3	
10.99	8.25	137.5	
10.995	7.25	137.5	
11	7.25	137.8	
11.005	8.25	138	
11.01	8.25	138.8	
11.015	7.25	139.3	
11.02	7	139.8	
11.025	8	140.5	
11.03	7.75	140.8	
11.035	7	141	
11.04	7	141.5	
11.045	8	141.8	
11.05	8.25	142.3	
11.055	7.25	142.5	
11.06	7.25	142.8	
11.065	7.75	143	
11.07	7.75	143	
11.075	7	143	
11.08	6.75	143.3	
11.085	8	143.5	
11.09	8	143.5	
11.095	7	143.5	
11.1	6.75	143.8	
11.105	7.75	143.8	
11.11	7.75	143.8	
11.115	6.75	143.8	
11.12	6.75	144	
11.125	7.75	144	
11.13	7.75	144	
11.135	7	144	
11.14	6.75	144	
11.145	7.5	144	
11.15	7.75	144	
11.155	6.75	144	
11.16	6.75	144	
11.165	7.5	144	
11.17	7.5	144	
11.175	6.75	144	
11.18	6.75	144	
11.185	7.5	144	
11.19	7.75	144	
11.195	7	144	
11.2	6.75	144	
11.205	7.75	144	
11.21	7.75	144	
11.215	7	144	
11.22	7	144	
11.225	8	144	
11.23	8	144	
11.235	7	144	
11.24	7	144	
11.245	7.75	144	
11.25	8	144	
11.255	7	144	
11.26	7	144	
11.265	7.75	144	
11.27	7.75	144	
11.275	6.75	144	
11.28	6.75	144	
11.285	7.75	144	
11.29	7.75	144	
11.295	7	144	
11.3	6.75	144	
11.305	7.75	144	
11.31	7.75	144	
11.315	7	144	
11.32	7.25	144	
11.325	8.5	144	
11.33	8.5	144	
11.335	7.25	144	
11.34	7.25	144	
11.345	8.25	144	
11.35	8	144	
11.355	7	144	
11.36	7	144	
11.365	8.25	144	
11.37	8.5	144	
11.375	7.75	144	
11.38	7.5	144	
11.385	8.5	144	
11.39	8.75	144	
11.395	8.25	144	
11.4	8.75	144	
11.405	11.25	144	
11.41	12.5	144	
11.415	11.75	144	
11.42	10.5	144	
11.425	10.5	144	
11.43	10.5	144	
11.435	9.5	144	
11.44	9	144	
11.445	8	144	
11.45	6	144	
11.455	4.25	144	
11.46	3.25	144	
11.465	3.25	144	
11.47	3.25	144	
11.475	3.25	144	
11.48	4	144	
11.485	5.25	144	
11.49	5.25	144	
11.495	4.75	144	
11.5	4.75	144	
11.505	5.5	144	
11.51	6	144	
11.515	5.75	144	
11.52	5.25	144	
11.525	5.75	144	
11.53	6.25	144	
11.535	5.75	144	
11.54	4.5	144	
11.545	3.25	144	
11.55	0	144	
11.555	-3.5	144	
11.56	-3.25	144	
11.565	9.25	144	
11.57	32.5	144	
11.575	65.25	144	
11.58	95.5	144	
11.585	90.25	144	
11.59	74.25	144	
11.595	57.5	144	
11.6	37.5	144	
11.605	20.25	144	
11.61	8.75	144	
11.615	3	144	
11.62	2	144	
11.625	2	144	
11.63	2.5	144	
11.635	3.5	144	
11.64	5.25	144	
11.645	7.25	144	
11.65	7.75	144	
11.655	7.5	144	
11.66	7.5	144	
11.665	8.25	144	
11.67	8.5	144	
11.675	8.5	144	
11.68	8.5	144	
11.685	9.25	144	
11.69	9.25	144	
11.695	9.25	144	
11.7	9.25	144	
11.705	10	144	
11.71	10.25	144	
11.715	9.75	144	
11.72	9.75	144	
11.725	10.25	144	
11.73	10.5	144	
11.735	10.5	144	
11.74	10.5	144	
11.745	11	144	
11.75	11.5	144	
11.755	11	144	
11.76	11	144	
11.765	12.5	144	
11.77	12.5	144	
11.775	12.5	144	
11.78	12.5	144	
11.785	13.75	144	
11.79	14.5	144	
11.795	14.5	144	
11.8	15	144	
11.805	17	144	
11.81	18	144	
11.815	18	144	
11.82	18.75	144	
11.825	20.25	144	
11.83	21.5	144	
11.835	21.5	144	
11.84	21.75	144	
11.845	23.5	144	
11.85	24.25	144	
11.855	24.25	144	
11.86	24	144	
11.865	24.25	144	
11.87	24.25	144	
11.875	23	144	
11.88	21.75	144	
11.885	21.25	144	
11.89	20	144	
11.895	17.75	144	
11.9	16.25	144.3	
11.905	15.5	144	
11.91	14.25	144	
11.915	12.5	144.3	
11.92	11.75	144.3	
11.925	11.75	144.3	
11.93	11.25	144	
11.935	10	144	
11.94	9.75	144	
11.945	10.75	144	
11.95	10.5	144	
11.955	9.5	144	
11.96	9	144	
11.965	10	143.8	
11.97	10	143.8	
11.975	9.25	143.8	
11.98	9.5	143.8	
11.985	10.25	143.8	
11.99	10.25	143.8	
11.995	9.25	143.8	
12	9	143.8	
12.005	10	144	
12.01	10.25	144.3	
12.015	8.75	144.5	
12.02	8.5	144.5	
12.025	9.5	143	
12.03	9.75	139	
12.035	9	133.3	
12.04	8.75	127.5	
12.045	9.75	124	
12.05	9.25	123	
12.055	8.25	123.8	
12.06	8.25	124.5	
12.065	9.5	124.3	
12.07	9.75	124	
12.075	9	122.8	
12.08	8.75	122	
12.085	9.5	121	
12.09	9.25	120	
12.095	8.5	119	
12.1	8.25	118.3	
12.105	9.25	117.5	
12.11	9.5	116.5	
12.115	8.75	115.8	
12.12	8.5	115.5	
12.125	9.5	114.8	
12.13	9.25	114	
12.135	8.25	113.8	
12.14	8.25	113.3	
12.145	9	113	
12.15	9.5	112.8	
12.155	8.5	112.5	
12.16	8.5	112.3	
12.165	9.25	112	
12.17	9	112	
12.175	8.5	111.8	
12.18	8.25	111.8	
12.185	9.5	111.5	
12.19	9.5	111.5	
12.195	8.25	111.3	
12.2	8	111.3	
12.205	9.25	111.3	
12.21	9.25	111.3	
12.215	8.25	111.3	
12.22	8	111.3	
12.225	9	111	
12.23	9	111	
12.235	8.25	111	
12.24	8	111	
12.245	9	111	
12.25	9.25	111	
12.255	8.5	111	
12.26	8	111	
12.265	9.25	111	
12.27	9	111	
12.275	8.25	111	
12.28	8	111	
12.285	9.25	110.8	
12.29	9.25	111	
12.295	8.5	111	
12.3	8.25	111	
12.305	9	111	
12.31	9	111.3	
12.315	8.25	111	
12.32	7.75	111	
12.325	8.75	111	
12.33	9.25	111	
12.335	8.25	111	
12.34	8	110.8	
12.345	9	110.8	
12.35	9	111	
12.355	7.75	111	
12.36	7.5	111	
12.365	8.75	111	
12.37	8.75	111	
12.375	8	111.3	
12.38	7.75	111.3	
12.385	8.5	111.3	
12.39	8.5	111	
12.395	7.75	111	
12.4	7.75	111	
12.405	8.75	111	
12.41	8.75	111	
12.415	8.25	111	
12.42	7.75	111	
12.425	8.5	111	
12.43	8.75	111	
12.435	8.5	111	
12.44	8.5	111	
12.445	9.25	111	
12.45	9.5	111	
12.455	9.5	111	
12.46	10.25	111	
12.465	11.5	111	
12.47	11.25	111	
12.475	9.5	111	
12.48	8.25	111	
12.485	9	111	
12.49	9.25	111	
12.495	8	111	
12.5	5.5	111	
12.505	4.75	111	
12.51	4	111	
12.515	3	111	
12.52	2.75	111	
12.525	4	111	
12.53	5.25	111	
12.535	5.25	111	
12.54	5	111	
12.545	5.5	111	
12.55	5.5	111	
12.555	5.25	111	
12.56	5.25	111	
12.565	6	111	
12.57	6.25	111	
12.575	6	111	
12.58	6	111	
12.585	6.5	111	
12.59	6.25	111	
12.595	3.5	111	
12.6	0	111	
12.605	-2.25	111	
12.61	-3	111	
12.615	3	111	
12.62	22.5	111	
12.625	53.5	111	
12.63	91	111	
12.635	95.5	111	
12.64	79.25	111	
12.645	65.25	111	
12.65	46	111	
12.655	25.5	111	
12.66	11.5	111	
12.665	4.5	111	
12.67	3.25	111	
12.675	1.25	111	
12.68	0.75	110.8	
12.685	2.75	110.8	
12.69	4.5	110.8	
12.695	5	110.8	
12.7	5.5	111	
12.705	6.75	111	
12.71	7	111	
12.715	7	111	
12.72	6.75	111	
12.725	7.25	111	
12.73	7.5	111	
12.735	7.25	111	
12.74	7.25	111	
12.745	8	111	
12.75	8.25	111	
12.755	8.25	111	
12.76	8	111	
12.765	8.75	111	
12.77	8.75	110.8	
12.775	8.5	110.8	
12.78	8.5	110.8	
12.785	9.25	110.8	
12.79	9.25	110.8	
12.795	9	111	
12.8	9	111	
12.805	9.5	110.8	
12.81	9.75	110.8	
12.815	9.75	110.8	
12.82	9.75	110.8	
12.825	10.75	111	
12.83	11.25	111	
12.835	11.25	111	
12.84	11.25	111	
12.845	12.5	111	
12.85	13.25	111	
12.855	13.25	111	
12.86	14	111	
12.865	15.75	111	
12.87	16.25	111	
12.875	16.25	111	
12.88	16.25	111	
12.885	18	111	
12.89	19	111	
12.895	19	111	
12.9	19.5	111	
12.905	21	111	
12.91	21.5	111	
12.915	20.75	111	
12.92	19.75	111	
12.925	19.75	111	
12.93	18.75	111	
12.935	16.5	111	
12.94	15	111	
12.945	14.75	111.3	
12.95	13.5	111.3	
12.955	11.25	111.5	
12.96	9.75	111.3	
12.965	9.75	111.3	
12.97	9	111.3	
12.975	7.25	111.3	
12.98	6.5	111.3	
12.985	7.25	111.3	
12.99	7	111	
12.995	5.75	111.3	
13	5.5	111.3	
13.005	6.25	111	
13.01	6.5	110.8	
13.015	5.5	110.8	
13.02	5.25	111	
13.025	6.25	111	
13.03	6	110.8	
13.035	5	110.8	
13.04	4.75	110.8	
13.045	5.75	110.8	
13.05	5.75	110.8	
13.055	5	110.8	
13.06	4.75	110.5	
13.065	5.75	110.8	
13.07	5.75	110.8	
13.075	4.75	110.8	
13.08	4.5	110.8	
13.085	5.25	111	
13.09	5.25	110.8	
13.095	4.5	110.8	
13.1	4.25	110.8	
13.105	5	110.8	
13.11	5.25	110.8	
13.115	4.25	111	
13.12	4	111	
13.125	5	111	
13.13	5	111	
13.135	4	111	
13.14	3.75	111	
13.145	4.5	111	
13.15	4.5	111	
13.155	3.5	111	
13.16	3.5	111	
13.165	4.5	111	
13.17	4.75	111	
13.175	3.75	111	
13.18	3.5	111	
13.185	4.5	111	
13.19	4.75	111	
13.195	3.75	111	
13.2	3.5	111	
13.205	4.25	111	
13.21	4.25	111	
13.215	3.5	111	
13.22	3	111	
13.225	4	111.3	
13.23	4.25	111	
13.235	3.5	111	
13.24	3.25	111	
13.245	4	111	
13.25	4	111.3	
13.255	3	111.3	
13.26	3	111.3	
13.265	4	111.3	
13.27	4.25	111.3	
13.275	3.25	111.3	
13.28	2.75	111.3	
13.285	3.75	111.3	
13.29	3.75	110.8	
13.295	3	111	
13.3	2.75	111	
13.305	3.75	111	
13.31	3.5	111	
13.315	2.5	111	
13.32	2.5	111	
13.325	3.25	111	
13.33	3.5	111	
13.335	2.5	111	
13.34	2.5	111	
13.345	3.5	111	
13.35	3.75	111	
13.355	2.75	111	
13.36	2.5	111	
13.365	3.5	111	
13.37	3.75	111	
13.375	2.75	110.8	
13.38	2.5	110.8	
13.385	3.25	110.8	
13.39	3.5	111	
13.395	2.75	111	
13.4	2.5	111	
13.405	3.5	111	
13.41	3.5	111	
13.415	2.75	111	
13.42	2.25	111	
13.425	2.75	111	
13.43	2.75	111	
13.435	2.5	111	
13.44	2.25	111	
13.445	2.75	111	
13.45	2.75	111	
13.455	2.5	111	
13.46	2.25	111	
13.465	2.75	111	
13.47	3	111	
13.475	2.25	111	
13.48	2	111.3	
13.485	2.5	111.3	
13.49	2.75	111	
13.495	2.25	111	
13.5	1.75	111	
13.505	2.25	111	
13.51	2.5	111	
13.515	2.25	111	
13.52	2	111	
13.525	2.75	111	
13.53	3	111	
13.535	3	111	
13.54	3	111	
13.545	4.5	111	
13.55	5.5	111	
13.555	5	111	
13.56	4	111	
13.565	3.5	111	
13.57	2.5	110.8	
13.575	1.75	111	
13.58	1.75	111	
13.585	1.75	111	
13.59	-0.25	111	
13.595	-2.75	111	
13.6	-4	111	
13.605	-3.5	111	
13.61	-3.25	111	
13.615	-3.25	111	
13.62	-2.5	111	
13.625	-0.75	111	
13.63	-0.5	111	
13.635	-0.75	111	
13.64	-1	111	
13.645	-0.5	111	
13.65	-0.25	111	
13.655	-0.5	111	
13.66	-0.5	111	
13.665	0	111	
13.67	0.25	111	
13.675	-0.25	111	
13.68	-1.5	111	
13.685	-2.5	111	
13.69	-5	111	
13.695	-8.25	111	
13.7	-8.25	111	
13.705	2.25	111	
13.71	25.75	111	
13.715	57.75	111	
13.72	89.75	111	
13.725	86.75	111	
13.73	68	111	
13.735	48	111	
13.74	26.5	111	
13.745	9.25	111	
13.75	-1.25	111	
13.755	-5.25	111	
13.76	-5.75	111	
13.765	-5.75	111	
13.77	-4.5	111	
13.775	-3.25	111	
13.78	-2	111	
13.785	-0.25	111	
13.79	0.25	111	
13.795	0.25	111	
13.8	0.25	111	
13.805	1	111	
13.81	1.5	111	
13.815	1.25	110.8	
13.82	1.25	110.8	
13.825	1.75	111	
13.83	2	111.3	
13.835	2	111	
13.84	2	111	
13.845	2.5	111	
13.85	2.75	111	
13.855	2.5	111	
13.86	2.5	111	
13.865	3.25	111	
13.87	3.75	111	
13.875	3.5	111	
13.88	3.5	111	
13.885	4.25	111	
13.89	4.5	111	
13.895	4	111	
13.9	4	111	
13.905	5.25	111	
13.91	5.5	111	
13.915	5	111	
13.92	5.25	111	
13.925	6.75	111	
13.93	7.5	111	
13.935	7.25	111	
13.94	7.75	111	
13.945	9.5	111	
13.95	10.75	111	
13.955	10.75	111	
13.96	11.25	111	
13.965	13.75	111	
13.97	14.5	111	
13.975	14.5	111	
13.98	15	110.8	
13.985	16.75	110.8	
13.99	17.5	111	
13.995	17	111	
14	17	111	
14.005	17.5	111	
14.01	17	111	
14.015	15	111.3	
14.02	13.75	111.3	
14.025	13.25	111.3	
14.03	11.75	111.3	
14.035	9.25	111.3	
14.04	7.5	111.3	
14.045	7.25	111.3	
14.05	5.75	111.3	
14.055	4	111.3	
14.06	3	111.3	
14.065	3.25	111.3	
14.07	2.75	111.3	
14.075	1.5	111.3	
14.08	0.75	111.3	
14.085	1.5	111	
14.09	1.5	110.8	
14.095	0.25	110.8	
14.1	0	110.8	
14.105	1	110.8	
14.11	1.25	110.8	
14.115	0.25	110.8	
14.12	0.25	110.8	
14.125	1.25	110.8	
14.13	1.25	110.8	
14.135	0.25	110.5	
14.14	0.25	110.8	
14.145	1	110.8	
14.15	1	111	
14.155	0	111	
14.16	0	110.3	
14.165	1	109.3	
14.17	1.25	107.3	
14.175	0.25	105.3	
14.18	0	104	
14.185	1	103.8	
14.19	1	103.8	
14.195	0.25	104	
14.2	0	104	
14.205	1	103.8	
14.21	1.5	103.5	
14.215	0.5	103.3	
14.22	0.25	103	
14.225	1.25	102.8	
14.23	1.25	102.3	
14.235	0.25	102.3	
14.24	0	101.8	
14.245	1	101.3	
14.25	1.25	101.3	
14.255	0	101	
14.26	0.25	100.8	
14.265	0.75	100.5	
14.27	0.75	100.5	
14.275	-0.25	100	
14.28	-0.25	100	
14.285	0.75	100	
14.29	1	100	
14.295	0.25	100	
14.3	-0.25	99.8	
14.305	0.75	99.8	
14.31	1	99.8	
14.315	0	99.8	
14.32	-0.25	99.8	
14.325	0.75	99.5	
14.33	0.75	99.5	
14.335	0	99.5	
14.34	0	99.5	
14.345	0.75	99.5	
14.35	0.75	99.5	
14.355	0	99.5	
14.36	0	99.5	
14.365	1	99.5	
14.37	0.75	99.5	
14.375	0	99.8	
14.38	-0.5	99.8	
14.385	1	99.8	
14.39	0.75	99.8	
14.395	-0.25	99.8	
14.4	-0.25	99.8	
14.405	1	99.8	
14.41	1	99.8	
14.415	0.5	99.8	
14.42	0.25	99.5	
14.425	0.75	99.5	
14.43	0.75	99.5	
14.435	0.25	99.5	
14.44	0	99.5	
14.445	0.25	99.5	
14.45	0.5	99.5	
14.455	0.25	99.5	
14.46	0	99.3	
14.465	0.75	99.3	
14.47	0.75	99.5	
14.475	0.5	99.5	
14.48	0.5	99.5	
14.485	1	99.3	
14.49	1	99.3	
14.495	0.5	99.3	
14.5	0.5	99.3	
14.505	1.25	99.3	
14.51	1.25	99.3	
14.515	0.5	99.3	
14.52	0	99.5	
14.525	0.75	99.5	
14.53	0.75	99.3	
14.535	0.5	99.3	
14.54	0.25	99.3	
14.545	0.75	99.3	
14.55	1	99.3	
14.555	0.5	99.3	
14.56	0.25	99.3	
14.565	1	99.5	
14.57	1	99.3	
14.575	0.5	99.3	
14.58	0.5	99.5	
14.585	0.75	99.5	
14.59	1	99.5	
14.595	1	99.5	
14.6	1	99.5	
14.605	2	99.5	
14.61	3	99.5	
14.615	3.5	99.5	
14.62	3.75	99.5	
14.625	3.75	99.5	
14.63	3.25	99.5	
14.635	1.25	99.5	
14.64	1.25	99.5	
14.645	1.75	99.5	
14.65	1.25	99.5	
14.655	-1.5	99.5	
14.66	-3.25	99.5	
14.665	-3.5	99.5	
14.67	-3.75	99.5	
14.675	-4.5	99.5	
14.68	-4.5	99.5	
14.685	-2.25	99.5	
14.69	-1.75	99.5	
14.695	-2.25	99.5	
14.7	-2.5	99.5	
14.705	-2	99.5	
14.71	-1.75	99.5	
14.715	-2	99.5	
14.72	-2	99.5	
14.725	-1.5	99.5	
14.73	-1.25	99.5	
14.735	-1.5	99.5	
14.74	-1.5	99.5	
14.745	-1.25	99.5	
14.75	-2.5	99.5	
14.755	-6.5	99.5	
14.76	-9.75	99.5	
14.765	-9.75	99.5	
14.77	-3.75	99.5	
14.775	14.75	99.5	
14.78	44	99.5	
14.785	81.5	99.5	
14.79	87.5	99.5	
14.795	71	99.5	
14.8	54.5	99.5	
14.805	36.5	99.5	
14.81	17	99.5	
14.815	2.5	99.5	
14.82	-4.5	99.5	
14.825	-4.5	99.5	
14.83	-5.25	99.5	
14.835	-6	99.5	
14.84	-5.25	99.5	
14.845	-2.5	99.5	
14.85	-1.25	99.5	
14.855	-1.25	99.5	
14.86	-1	99.5	
14.865	0	99.5	
14.87	0.25	99.5	
14.875	0.25	99.5	
14.88	0.25	99.5	
14.885	1	99.5	
14.89	1.75	99.5	
14.895	1.5	99.5	
14.9	1.25	99.5	
14.905	2	99.5	
14.91	2	99.5	
14.915	1.75	99.5	
14.92	2	99.5	
14.925	3.25	99.5	
14.93	3.25	99.5	
14.935	2.5	99.5	
14.94	2.25	99.5	
14.945	3.5	99.5	
14.95	3.75	99.5	
14.955	3.25	99.5	
14.96	3	99.5	
14.965	4.25	99.5	
14.97	4.5	99.5	
14.975	4	99.5	
14.98	4.25	99.5	
14.985	5.5	99.5	
14.99	6.25	99.5	
14.995	5.75	99.5	
15	6.5	99.5	
15.005	8	99.5	
15.01	8.75	99.5	
15.015	9	99.5	
15.02	9.75	99.5	
15.025	11.75	99.5	
15.03	12.5	99.3	
15.035	12.5	99.3	
15.04	13.25	99.3	
15.045	14.75	99.5	
15.05	15.5	99.3	
15.055	15.5	99.3	
15.06	16	99.3	
15.065	17.5	99.5	
15.07	17	99.5	
15.075	15.5	99.5	
15.08	14.5	99.5	
15.085	14.25	99.8	
15.09	13.25	99.5	
15.095	11.25	99.8	
15.1	9.5	99.8	
15.105	9	99.8	
15.11	7.5	100	
15.115	5.25	100	
15.12	4	99.8	
15.125	4	99.8	
15.13	3.5	99.8	
15.135	2	99.5	
15.14	1.75	99.8	
15.145	2	99.5	
15.15	2	99.3	
15.155	1	99.3	
15.16	0.75	99.3	
15.165	1.75	99.3	
15.17	1.75	99	
15.175	0.75	99	
15.18	0.5	99.3	
15.185	1.5	99.3	
15.19	1.5	99.3	
15.195	0.5	99	
15.2	0	99	
15.205	1.25	99	
15.21	1.5	99.3	
15.215	0.25	99.3	
15.22	0.25	99	
15.225	1.25	99	
15.23	1.5	99.3	
15.235	0.5	99.8	
15.24	0.25	99.8	
15.245	0.75	99	
15.25	1.25	97.5	
15.255	0	95.8	
15.26	0	94.3	
15.265	1.25	92.8	
15.27	0.75	92.5	
15.275	-0.75	92	
15.28	0	92.3	
15.285	1	92.3	
15.29	1.25	91.8	
15.295	0.25	91.8	
15.3	0	91.3	
15.305	0.75	90.8	
15.31	0.75	90.5	
15.315	0	90	
15.32	-0.25	89.8	
15.325	0.75	89.3	
15.33	1	89	
15.335	0.25	88.8	
15.34	0	88.5	
15.345	1	88.3	
15.35	1.25	87.8	
15.355	0	87.5	
15.36	-0.25	87	
15.365	0.75	86.8	
15.37	1	86	
15.375	0	85.8	
15.38	-0.25	85.3	
15.385	0.75	85.3	
15.39	0.75	85	
15.395	-0.25	84.8	
15.4	-0.25	84.8	
15.405	0.75	85	
15.41	0.75	85	
15.415	0.25	85.3	
15.42	0	85.5	
15.425	0.25	85.8	
15.43	0.5	86.3	
15.435	0.25	86.8	
15.44	0	87	
15.445	0.5	87.5	
15.45	0.5	88	
15.455	-0.25	88.5	
15.46	-0.25	89	
15.465	0.25	89.5	
15.47	0.5	90	
15.475	0	90.5	
15.48	-0.25	91	
15.485	0.5	91.5	
15.49	1	92	
15.495	0.75	92	
15.5	0.25	92.5	
15.505	0.25	92.5	
15.51	0.5	92.5	
15.515	0.25	93	
15.52	0.25	93	
15.525	0.75	92.8	
15.53	0.75	92.5	
15.535	0.25	92.5	
15.54	0.25	92.5	
15.545	0.75	92.3	
15.55	1	92	
15.555	0.75	91.8	
15.56	0.5	91.5	
15.565	1	91.3	
15.57	1	91	
15.575	0.75	90.5	
15.58	0.75	90.3	
15.585	1	89.8	
15.59	1	89.5	
15.595	0.5	89.3	
15.6	0.25	88.8	
15.605	1	88.3	
15.61	1	88	
15.615	1	87.5	
15.62	1	87.3	
15.625	3	86.5	
15.63	5.25	86.3	
15.635	5.25	86	
15.64	4	85.5	
15.645	4	85.3	
15.65	3.5	84.8	
15.655	3	84.5	
15.66	2.75	84.3	
15.665	2.75	84	
15.67	0.5	83.5	
15.675	-2.25	83.3	
15.68	-3	82.8	
15.685	-3	82.5	
15.69	-3.5	82.5	
15.695	-3.75	82	
15.7	-3.5	81.8	
15.705	-2.5	81.8	
15.71	-2.5	81.3	
15.715	-2.75	81.3	
15.72	-2.75	81	
15.725	-2	81	
15.73	-2	80.8	
15.735	-2.25	80.5	
15.74	-2.25	80.3	
15.745	-1.25	80	
15.75	-1	80	
15.755	-1.25	79.8	
15.76	-2	79.5	
15.765	-3.25	79.5	
15.77	-6	79.3	
15.775	-10.25	79.3	
15.78	-12.5	79.3	
15.785	-7	78.8	
15.79	10.5	78.8	
15.795	37.75	78.8	
15.8	75.5	78.5	
15.805	92.25	78.3	
15.81	78.5	78.3	
15.815	63.25	78	
15.82	45	78	
15.825	25	77.8	
15.83	8.5	77.5	
15.835	-2	77.5	
15.84	-4.75	77.5	
15.845	-4.75	77.3	
15.85	-5.5	77.3	
15.855	-5.5	77	
15.86	-3.5	77	
15.865	-1	76.8	
15.87	0	76.8	
15.875	-0.25	76.5	
15.88	-0.25	76.5	
15.885	0.75	76.3	
15.89	1	76	
15.895	0.5	76	
15.9	0.5	75.8	
15.905	1.5	75.8	
15.91	2	75.8	
15.915	1.5	75.8	
15.92	1.5	75.5	
15.925	2.75	75.3	
15.93	2.5	75.3	
15.935	2	75	
15.94	2	74.8	
15.945	3.25	75.3	
15.95	3.5	75	
15.955	2.75	75	
15.96	2.75	75	
15.965	3.75	75	
15.97	4	74.8	
15.975	3.5	74.5	
15.98	4	74.5	
15.985	5.25	74.5	
15.99	5.25	74.5	
15.995	4	74.3	
16	4.25	74.3	
16.005	5.75	74.3	
16.01	6.5	74.3	
16.015	6.25	74	
16.02	6.75	74	
16.025	8.5	73.8	
16.03	9.25	73.8	
16.035	9	73.5	
16.04	9.25	73.5	
16.045	11	73.3	
16.05	11.5	73.3	
16.055	11.5	73.3	
16.06	12	73	
16.065	13.75	72.8	
16.07	14.75	72.8	
16.075	14.25	72.8	
16.08	14.5	73	
16.085	15.25	73.3	
16.09	14.75	73.8	
16.095	13.25	74.5	
16.1	12.25	68.8	
16.105	12	70.8	
16.11	11	73.5	
16.115	8.75	77.3	
16.12	7.5	81.3	
16.125	7	85.8	
16.13	6	90.3	
16.135	4	95	
16.14	2.75	99.5	
16.145	3	103	
16.15	2.75	106	
16.155	1.5	108.3	
16.16	0.75	110.3	
16.165	1.25	111.3	
16.17	1.75	112	
16.175	0.75	112.5	
16.18	0.25	112.8	
16.185	1.25	113	
16.19	1.5	113.3	
16.195	0.5	113.3	
16.2	0	113.3	
16.205	1	113.3	
16.21	1.25	113	
16.215	0.5	112.5	
16.22	0.25	112	
16.225	1	111.3	
16.23	1	110.3	
16.235	0	109.3	
16.24	0	108	
16.245	1	106.8	
16.25	1	105.3	
16.255	0.5	104	
16.26	0	102.5	
16.265	0.75	101	
16.27	0.75	100	
16.275	-0.25	98.8	
16.28	-0.5	97.5	
16.285	0.25	96.3	
16.29	0.25	95	
16.295	0	94	
16.3	-0.25	92.8	
16.305	0.5	92	
16.31	0.5	91	
16.315	-0.5	90	
16.32	-0.75	89.5	
16.325	0	88.5	
16.33	0	88	
16.335	-0.75	87.3	
16.34	-0.75	86.5	
16.345	0.5	86	
16.35	0.5	85.5	
16.355	-1	85	
16.36	-1	84.5	
16.365	0	83.8	
16.37	0.25	83.5	
16.375	-0.5	83	
16.38	-0.75	82.3	
16.385	0.25	81.8	
16.39	0.25	81	
16.395	-1	80.8	
16.4	-1.5	80.8	
16.405	-0.5	80.5	
16.41	-0.5	80.3	
16.415	-1.25	71	
16.42	-1.25	71.3	
16.425	-0.75	71.3	
16.43	-0.5	71.3	
16.435	-1	71.8	
16.44	-1	72.3	
16.445	-0.75	72.8	
16.45	-0.5	73	
16.455	-1	73.8	
16.46	-1.25	74.3	
16.465	-0.25	74.8	
16.47	-0.25	75.3	
16.475	-1	76	
16.48	-1	76.5	
16.485	-0.75	77	
16.49	-0.75	77.8	
16.495	-1	78	
16.5	-1.25	78.5	
16.505	-0.75	78.8	
16.51	-0.5	79	
16.515	-0.75	79.3	
16.52	-1	79.5	
16.525	-0.5	79.5	
16.53	-0.5	79.8	
16.535	-1	79.8	
16.54	-1.25	79.8	
16.545	-0.75	79.3	
16.55	-0.75	79.3	
16.555	-1	79	
16.56	-1	78.8	
16.565	-0.5	78.3	
16.57	-0.5	78.3	
16.575	-1	77.8	
16.58	-1	77.3	
16.585	-0.5	77	
16.59	-0.5	76.8	
16.595	-1	76.3	
16.6	-1	76	
16.605	-0.75	75.5	
16.61	-0.75	75.3	
16.615	-1.25	74.8	
16.62	-1.25	74.3	
16.625	-0.5	73.8	
16.63	-0.5	73.3	
16.635	-0.5	72.8	
16.64	-0.75	72.5	
16.645	-0.25	72	
16.65	0.25	71.8	
16.655	-0.25	71.3	
16.66	-0.25	71	
16.665	2.25	70.5	
16.67	3.5	70.3	
16.675	2.5	69.8	
16.68	1.5	69.8	
16.685	1.25	69.3	
16.69	1	68.8	
16.695	0.5	68.8	
16.7	-0.25	68.5	
16.705	-1.25	68	
16.71	-3	68	
16.715	-5.25	67.8	
16.72	-5.75	67.5	
16.725	-5.5	67	
16.73	-4.75	67	
16.735	-4.75	66.8	
16.74	-4	66.3	
16.745	-3	66.3	
16.75	-2.75	66	
16.755	-3	66	
16.76	-3.25	65.8	
16.765	-2.75	65.3	
16.77	-2.5	65.3	
16.775	-2.5	65.3	
16.78	-2.5	65.3	
16.785	-1.75	64.8	
16.79	-1.5	64.8	
16.795	-2	64.8	
16.8	-3.75	64.5	
16.805	-5	64.5	
16.81	-7.75	64.3	
16.815	-10.75	63.8	
16.82	-10	63.8	
16.825	2.5	63.5	
16.83	26.5	63.5	
16.835	59	63.3	
16.84	89.75	63.3	
16.845	84.5	63.3	
16.85	66.75	63.3	
16.855	47.25	63	
16.86	25.25	63	
16.865	8.25	62.8	
16.87	-2	62.5	
16.875	-6.75	62.5	
16.88	-7.25	62.3	
16.885	-7.25	62.3	
16.89	-5.75	62.3	
16.895	-4.75	62	
16.9	-3.25	62	
16.905	-0.75	61.8	
16.91	-0.5	61.8	
16.915	-1	61.3	
16.92	-1	61.3	
16.925	0.25	61	
16.93	0.25	61	
16.935	-0.5	60.8	
16.94	-0.5	60.8	
16.945	0.75	60.5	
16.95	1	60.3	
16.955	0.25	60.3	
16.96	0.25	60.3	
16.965	1.25	60.3	
16.97	1.75	60.3	
16.975	1	60	
16.98	1.25	60	
16.985	2.25	59.5	
16.99	2.25	59.5	
16.995	1.5	59.5	
17	1.5	59.5	
17.005	2.75	59.5	
17.01	3	59.3	
17.015	2.5	59	
17.02	2.5	59	
17.025	3.5	59	
17.03	3.75	59	
17.035	3.5	59	
17.04	3.75	58.8	
17.045	5.25	58.8	
17.05	6	58.5	
17.055	5.75	58.5	
17.06	6.5	58.3	
17.065	8.25	58	
17.07	9.25	58	
17.075	9.25	57.8	
17.08	10	57.8	
17.085	11.75	57.5	
17.09	12.5	57.5	
17.095	12.5	57.5	
17.1	13	57.3	
17.105	14.75	57.3	
17.11	15.75	57.3	
17.115	15.25	57.3	
17.12	15	57.8	
17.125	15.5	58.3	
17.13	14.5	66	
17.135	12.5	67.8	
17.14	11	70.8	
17.145	10.75	74	
17.15	9.25	78.3	
17.155	6.75	83	
17.16	5.25	88	
17.165	5	92.8	
17.17	4	97.3	
17.175	2.25	101	
17.18	1.25	104.5	
17.185	1.75	107.3	
17.19	1	109	
17.195	-0.25	110.3	
17.2	-0.75	111.3	
17.205	0	112	
17.21	0.25	112.5	
17.215	-0.75	113	
17.22	-1	113	
17.225	-0.25	113.3	
17.23	-0.25	113.3	
17.235	-1	113.3	
17.24	-1.25	113	
17.245	-0.25	112.8	
17.25	-0.25	112.3	
17.255	-1.25	111.5	
17.26	-1.5	110.5	
17.265	-0.5	109.3	
17.27	-0.5	108.3	
17.275	-1.25	107	
17.28	-1.5	105.8	
17.285	-0.75	104.5	
17.29	-0.5	103.5	
17.295	-1.5	102	
17.3	-1.5	100.8	
17.305	-0.75	99.5	
17.31	-0.75	98.3	
17.315	-1.5	97	
17.32	-1.75	96	
17.325	-0.75	95	
17.33	-0.75	94	
17.335	-1.25	92.8	
17.34	-1.5	92	
17.345	-0.5	91.3	
17.35	-0.75	90.5	
17.355	-1.75	89.8	
17.36	-2	89	
17.365	-1.25	88.5	
17.37	-1	88	
17.375	-1.75	87.5	
17.38	-1.75	87.3	
17.385	-0.75	87	
17.39	-0.5	86.5	
17.395	-1.25	86	
17.4	-1.5	85.5	
17.405	-0.75	85.3	
17.41	-0.75	84.5	
17.415	-1.75	84	
17.42	-2	83.8	
17.425	-1	83	
17.43	-1	82.8	
17.435	-2	82.5	
17.44	-2.25	82.5	
17.445	-1.25	82	
17.45	-1.25	82	
17.455	-2.25	82.3	
17.46	-2.25	82.3	
17.465	-1.25	82.5	
17.47	-1	82.5	
17.475	-2	82.8	
17.48	-2.25	83.3	
17.485	-1	83.5	
17.49	-1	83.8	
17.495	-2	84.3	
17.5	-2.25	84.8	
17.505	-1.25	85	
17.51	-1.25	85.3	
17.515	-2	85.5	
17.52	-2.25	86	
17.525	-1.25	86.5	
17.53	-1.25	86.8	
17.535	-2	87	
17.54	-2.5	87.3	
17.545	-1.5	87.5	
17.55	-1.5	87.8	
17.555	-2.25	88	
17.56	-2.5	87.8	
17.565	-1.5	87.8	
17.57	-1.5	87.8	
17.575	-2.25	87.8	
17.58	-2.5	87.5	
17.585	-1.5	87	
17.59	-1.25	86.8	
17.595	-2.25	86.8	
17.6	-2.25	86.5	
17.605	-1.25	86.3	
17.61	-1.25	85.8	
17.615	-2.25	85.5	
17.62	-2.5	85.3	
17.625	-1.5	84.8	
17.63	-1.25	84.3	
17.635	-2.25	84.3	
17.64	-2.25	83.8	
17.645	-1.5	83.5	
17.65	-1.5	83	
17.655	-2.25	82.5	
17.66	-2.5	82	
17.665	-1.5	81.8	
17.67	-1.25	81.3	
17.675	-2.25	80.8	
17.68	-2.5	80.5	
17.685	-1.5	80.3	
17.69	-1.5	79.5	
17.695	-2.25	79.3	
17.7	-2.5	78.8	
17.705	-1.5	78.5	
17.71	-1.5	78.3	
17.715	-2.5	77.8	
17.72	-2.5	77.5	
17.725	-1.5	77	
17.73	-1.25	77	
17.735	-2.25	76.5	
17.74	-2.25	76.3	
17.745	-1.25	76	
17.75	-1.5	75.8	
17.755	-2.25	75.5	
17.76	-2.5	75	
17.765	-1.75	75	
17.77	-1.5	74.5	
17.775	-2.5	74.5	
17.78	-2.5	74.3	
17.785	-1	74	
17.79	-0.5	73.8	
17.795	-0.75	73.5	
17.8	-0.25	73.5	
17.805	0.5	73.3	
17.81	0.25	73	
17.815	-1.25	72.8	
17.82	-3	72.5	
17.825	-2.25	72.5	
17.83	-1.75	72	
17.835	-2.75	72	
17.84	-4.75	72	
17.845	-5.25	72	
17.85	-6.75	71.8	
17.855	-8	71.5	
17.86	-8	71.3	
17.865	-6.75	71.3	
17.87	-5.5	71	
17.875	-5.75	71	
17.88	-5.5	70.8	
17.885	-4.5	70.8	
17.89	-4.25	70.8	
17.895	-5	70.3	
17.9	-5	70.3	
17.905	-4	70.3	
17.91	-4	70	
17.915	-4.25	69.8	
17.92	-4.25	69.8	
17.925	-3.5	69.5	
17.93	-3.5	69.3	
17.935	-5.75	69.3	
17.94	-8	69.3	
17.945	-9.75	69.3	
17.95	-12	68.8	
17.955	-10.5	68.8	
17.96	5	68.5	
17.965	32.75	68.5	
17.97	68.75	68.3	
17.975	88	68.3	
17.98	75	68	
17.985	56.75	68	
17.99	36	67.8	
17.995	14.25	67.8	
18	-1	67.8	
18.005	-7.25	67.5	
18.01	-7.75	67.3	
18.015	-9	67	
18.02	-9	67	
18.025	-6.75	66.8	
18.03	-4.5	66.8	
18.035	-4.5	66.5	
18.04	-4.5	66.5	
18.045	-3	66.3	
18.05	-2.25	66.3	
18.055	-2.75	66	
18.06	-3.25	66	
18.065	-2	65.8	
18.07	-1.5	65.8	
18.075	-2.25	65.5	
18.08	-2.5	65.3	
18.085	-1.5	65.3	
18.09	-0.75	65	
18.095	-1.5	65	
18.1	-1.75	65	
18.105	-0.5	65	
18.11	-0.25	65	
18.115	-1	64.5	
18.12	-1.25	64.5	
18.125	0	64.5	
18.13	0.5	64.3	
18.135	-0.25	64.3	
18.14	-0.5	64.3	
18.145	0.75	64.3	
18.15	1.25	64	
18.155	0.5	63.8	
18.16	0.5	63.8	
18.165	1.75	63.8	
18.17	2.75	63.5	
18.175	2	63.5	
18.18	2	63.5	
18.185	3.75	63.3	
18.19	5.25	63	
18.195	5.25	63	
18.2	5.25	63	
18.205	7	62.8	
18.21	8.25	62.5	
18.215	8.25	62.5	
18.22	9.25	62.3	
18.225	11	62.3	
18.23	12	62	
18.235	12	61.8	
18.24	12.5	61.8	
18.245	13.75	62	
18.25	14	62.3	
18.255	13.75	62.8	
18.26	13.25	63.8	
18.265	13.25	65.5	
18.27	12.25	67.8	
18.275	10	71	
18.28	8.25	75	
18.285	7.75	79.5	
18.29	6.25	84.3	
18.295	3.75	89	
18.3	2.5	94	
18.305	2.25	98.3	
18.31	1.25	102	
18.315	-0.5	105	
18.32	-1.5	107.3	
18.325	-1.25	108.8	
18.33	-1.25	110	
18.335	-2.5	110.8	
18.34	-2.5	110.8	
18.345	-2.5	111.3	
18.35	-2.5	111.8	
18.355	-3.25	111.8	
18.36	-3.25	112.3	
18.365	-2.75	112.3	
18.37	-2.75	112.3	
18.375	-3.25	111.8	
18.38	-3.25	111.5	
18.385	-2.75	110.8	
18.39	-2.75	110	
18.395	-3.25	109.3	
18.4	-3.25	108.3	
18.405	-2.75	107	
18.41	-3	105.8	
18.415	-3.75	104.5	
18.42	-4	103.3	
18.425	-3	101.8	
18.43	-3	100.8	
18.435	-3.75	99.5	
18.44	-3.75	98.3	
18.445	-2.75	97.3	
18.45	-2.75	96	
18.455	-3.5	95	
18.46	-3.75	94	
18.465	-2.75	92.8	
18.47	-2.5	91.8	
18.475	-3.25	91	
18.48	-3.75	90	
18.485	-2.75	89.5	
18.49	-2.75	89	
18.495	-3.75	88.5	
18.5	-3.75	87.8	
18.505	-3	87.5	
18.51	-3	87	
18.515	-3.75	86.8	
18.52	-3.75	86	
18.525	-3	85.8	
18.53	-3	85.5	
18.535	-4	85	
18.54	-4	84.5	
18.545	-3	83.8	
18.55	-3	83.3	
18.555	-4	82.8	
18.56	-4	82.3	
18.565	-3.25	82	
18.57	-3.25	81.8	
18.575	-4.25	81.5	
18.58	-4.25	81.3	
18.585	-3.25	81.3	
18.59	-3.25	81.3	
18.595	-4	81.3	
18.6	-4	81.3	
18.605	-3	81.5	
18.61	-3	82	
18.615	-4	82.3	
18.62	-4.25	82.5	
18.625	-3.25	83	
18.63	-3.25	83.5	
18.635	-4	83.5	
18.64	-4.25	83.8	
18.645	-3	84.5	
18.65	-3	84.8	
18.655	-4	85	
18.66	-4.25	85.3	
18.665	-3.25	85.5	
18.67	-2.75	86	
18.675	-3.75	86.3	
18.68	-4	86.3	
18.685	-3.25	86.5	
18.69	-3.25	86.5	
18.695	-4	86.8	
18.7	-4.25	86.8	
18.705	-3.25	86.5	
18.71	-3	86.5	
18.715	-4	86.3	
18.72	-4.25	86.3	
18.725	-3	86.3	
18.73	-2.75	85.5	
18.735	-3.75	85.5	
18.74	-3.75	85	
18.745	-2.75	84.8	
18.75	-2.75	84.5	
18.755	-3.75	84.3	
18.76	-4	84	
18.765	-3	83.5	
18.77	-3	83.3	
18.775	-3.5	82.8	
18.78	-3.5	82.5	
18.785	-2.75	82	
18.79	-2.75	81.8	
18.795	-3.75	81.3	
18.8	-3.75	80.8	
18.805	-2.5	80.5	
18.81	-3	80	
18.815	-4	79.5	
18.82	-4	79.3	
18.825	-3	78.5	
18.83	-3.25	78.3	
18.835	-4.25	78	
18.84	-4.25	77.8	
18.845	-3	77	
18.85	-2.75	76.8	
18.855	-3.75	76.3	
18.86	-3.75	76	
18.865	-2.5	76	
18.87	-2.5	75.5	
18.875	-3.75	75.3	
18.88	-4.25	74.8	
18.885	-3	74.8	
18.89	-2.75	74.3	
18.895	-3.75	74	
18.9	-3.25	74	
18.905	-2	73.5	
18.91	-2	73.3	
18.915	-2	73	
18.92	-1.75	72.8	
18.925	-0.75	72.5	
18.93	-0.75	72.5	
18.935	-2.25	72	
18.94	-3.75	72	
18.945	-3.5	71.8	
18.95	-2.5	71.5	
18.955	-3.25	71.3	
18.96	-5.25	71.3	
18.965	-6	71	
18.97	-7.25	71	
18.975	-8.75	70.8	
18.98	-8.75	70.5	
18.985	-7.5	70.5	
18.99	-6.5	70.3	
18.995	-6.5	70	
19	-6.5	69.8	
19.005	-5.5	69.5	
19.01	-5.5	69.5	
19.015	-5.75	69.3	
19.02	-5.75	69.3	
19.025	-4.75	69	
19.03	-4.75	69	
19.035	-4.75	68.8	
19.04	-5	68.8	
19.045	-4	68.5	
19.05	-4	68.5	
19.055	-6.5	68	
19.06	-9.5	68	
19.065	-11.5	68	
19.07	-13	68	
19.075	-9.5	67.8	
19.08	7.5	67.5	
19.085	35.75	67.3	
19.09	72.25	67	
19.095	85	67	
19.1	70.25	67	
19.105	54.25	66.8	
19.11	35.75	66.8	
19.115	14.75	66.5	
19.12	0	66.5	
19.125	-6.5	66.5	
19.13	-7.75	66.3	
19.135	-9.25	66.3	
19.14	-9.5	65.8	
19.145	-7.5	65.8	
19.15	-5.25	65.5	
19.155	-4.75	65.5	
19.16	-4.25	65.5	
19.165	-2.75	65.3	
19.17	-2.75	65.3	
19.175	-3	65	
19.18	-3	65	
19.185	-2	64.8	
19.19	-1.75	64.8	
19.195	-2	64.5	
19.2	-2	64.5	
19.205	-1.5	64.5	
19.21	-1.25	64	
19.215	-1.25	64	
19.22	-1.25	63.8	
19.225	-0.5	63.8	
19.23	-0.25	63.8	
19.235	-0.25	63.8	
19.24	-0.25	63.5	
19.245	0.5	63.3	
19.25	0.75	63.3	
19.255	0.75	63.3	
19.26	0.75	63	
19.265	1.5	63	
19.27	1.75	63	
19.275	1.5	63	
19.28	1.5	63	
19.285	2.75	63	
19.29	3.25	62.5	
19.295	3.25	62.5	
19.3	3.25	62.5	
19.305	4.75	62	
19.31	5.5	62.3	
19.315	5.5	62	
19.32	5.75	62	
19.325	7.75	61.5	
19.33	9.25	61.8	
19.335	9.25	61.5	
19.34	9.75	61.5	
19.345	11.25	61	
19.35	12.5	61	
19.355	12.5	60.8	
19.36	12.75	60.8	
19.365	14.25	60.8	
19.37	14.75	61	
19.375	14.5	61.3	
19.38	14.25	61.8	
19.385	14.25	63	
19.39	13.25	64.8	
19.395	11	67	
19.4	9.75	70.3	
19.405	8.5	74	
19.41	7.25	78	
19.415	5.25	82.8	
19.42	3.5	87.3	
19.425	3.5	91.5	
19.43	2.75	95.5	
19.435	0.75	98.8	
19.44	0	101.3	
19.445	0.5	103.5	
19.45	0.25	105	
19.455	-1	105.8	
19.46	-1.5	106.8	
19.465	-0.25	107	
19.47	0	107.3	
19.475	-1	107.8	
19.48	-1.5	107.8	
19.485	-0.5	108.3	
19.49	-0.5	108.3	
19.495	-1.25	108.3	
19.5	-1.5	108	
19.505	-0.75	107.5	
19.51	-0.5	107	
19.515	-1	106	
19.52	-1	105.3	
19.525	-0.25	104	
19.53	-0.5	103	
19.535	-1.5	102	
19.54	-1.75	100.5	
19.545	-0.75	99.3	
19.55	-0.5	98	
19.555	-1.25	97	
19.56	-1	95.8	
19.565	-0.25	94.5	
19.57	-0.5	93.5	
19.575	-1.25	92.3	
19.58	-1.5	91	
19.585	-0.5	90.3	
19.59	-0.5	89	
19.595	-1.25	88	
19.6	-1.25	87.3	
19.605	-0.5	86.3	
19.61	0	85.5	
19.615	-1	85	
19.62	-1.5	84.3	
19.625	-0.5	83.8	
19.63	-0.5	83.3	
19.635	-1.5	82.8	
19.64	-1.5	82.3	
19.645	-0.25	81.8	
19.65	0	81.5	
19.655	-1	81	
19.66	-1.25	80.5	
19.665	-0.25	79.8	
19.67	-0.5	79	
19.675	-1.5	78.5	
19.68	-1.5	78.3	
19.685	-0.75	77.8	
19.69	-0.5	77.3	
19.695	-1.25	77.3	
19.7	-1.25	77	
19.705	-0.25	77	
19.71	-0.5	77	
19.715	-1.5	77.3	
19.72	-1.25	77.3	
19.725	-0.25	77.5	
19.73	-0.25	78	
19.735	-1	78.5	
19.74	-1	78.5	
19.745	-0.25	79	
19.75	-0.25	79.5	
19.755	-1.5	80	
19.76	-1.75	80.5	
19.765	-0.5	81	
19.77	-0.25	81.3	
19.775	-1	82	
19.78	-1.25	82.3	
19.785	-0.25	82.8	
19.79	0	83.3	
19.795	-1	83.8	
19.8	-1	83.8	
19.805	0	84.3	
19.81	0	84	
19.815	-0.75	84.5	
19.82	-0.75	84.5	
19.825	0.25	84.5	
19.83	0	84.3	
19.835	-1	84.3	
19.84	-1.25	84	
19.845	0	83.8	
19.85	-0.25	83.8	
19.855	-0.75	83.3	
19.86	-1	83	
19.865	0.25	82.8	
19.87	0.25	82.3	
19.875	-0.5	82	
19.88	-0.5	81.5	
19.885	0.5	81.5	
19.89	0.5	81	
19.895	-0.5	80.5	
19.9	-0.75	80	
19.905	0.25	79.8	
19.91	0.25	79.3	
19.915	0	79	
19.92	0	78.3	
19.925	0.75	78	
19.93	0.75	77.5	
19.935	0.25	77	
19.94	0	76.8	
19.945	0.25	76.3	
19.95	0.25	76	
19.955	0	75.5	
19.96	0	75	
19.965	0.75	74.8	
19.97	1	74.3	
19.975	1	74	
19.98	1	73.5	
19.985	2.25	73.5	
19.99	3.25	73.3	
19.995	3.25	73	
20	2.5	72.5	
20.005	2.5	72.5	
20.01	1.75	72	
20.015	1	71.8	
20.02	1	71.8	
20.025	1	71.3	
20.03	-1	71	
20.035	-3.5	70.8	
20.04	-4.75	70.5	
20.045	-4.5	70.3	
20.05	-4.5	70.3	
20.055	-4.5	70.3	
20.06	-3.5	69.8	
20.065	-2.25	69.8	
20.07	-1.5	69.8	
20.075	-2	69.5	
20.08	-2	69.3	
20.085	-1.25	69	
20.09	-1.25	69	
20.095	-1.5	68.8	
20.1	-1.5	68.5	
20.105	-0.5	68.3	
20.11	-0.25	68	
20.115	-0.75	68	
20.12	-1.75	67.8	
20.125	-3.5	67.8	
20.13	-6.5	67.8	
20.135	-10.25	67.5	
20.14	-10.75	67.5	
20.145	-2.25	67.3	
20.15	17.5	67	
20.155	47.5	66.8	
20.16	84.75	66.8	
20.165	90.25	66.8	
20.17	74.25	66.5	
20.175	58.25	66.5	
20.18	38.5	66.3	
20.185	19.5	66.3	
20.19	5.5	66	
20.195	-2.5	66	
20.2	-4.25	65.8	
20.205	-4.5	65.8	
20.21	-4.75	65.5	
20.215	-4.5	65.5	
20.22	-2.75	65.5	
20.225	-0.5	65.3	
20.23	0	65	
20.235	-0.25	65	
20.24	-0.5	64.8	
20.245	0.5	64.5	
20.25	0.5	64.5	
20.255	0.5	64.5	
20.26	0.5	64.3	
20.265	1.5	64.3	
20.27	1.5	64.3	
20.275	1.25	64	
20.28	1.25	64	
20.285	1.75	63.8	
20.29	2	63.8	
20.295	1.75	63.8	
20.3	1.75	63.8	
20.305	2.5	63.5	
20.31	3	63.5	
20.315	2.75	63.3	
20.32	2.75	63.3	
20.325	3.25	63.3	
20.33	3.5	63.3	
20.335	3	63.3	
20.34	2.75	63	
20.345	3.5	62.8	
20.35	3.75	62.8	
20.355	3.75	62.8	
20.36	3.75	62.5	
20.365	4.75	62.5	
20.37	5.25	62.5	
20.375	5.25	62.5	
20.38	5.5	62	
20.385	7.25	62.3	
20.39	8	62	
20.395	8	62	
20.4	8.5	61.5	
20.405	10.5	61.5	
20.41	11.5	61.5	
20.415	11.25	61	
20.42	11.5	61.3	
20.425	13	61	
20.43	13.75	60.8	
20.435	13.5	60.8	
20.44	13.5	60.8	
20.445	14.5	61	
20.45	13.75	61.8	
20.455	12.5	62.8	
20.46	11.25	65.8	
20.465	11.25	68	
20.47	9.75	70.8	
20.475	7.5	74	
20.48	6.25	78	
20.485	5.75	82.3	
20.49	4.75	86.5	
20.495	2.75	90.8	
20.5	1.75	94.8	
20.505	2	98	
20.51	1.5	100.8	
20.515	0	103	
20.52	-0.5	104.5	
20.525	0.5	105.5	
20.53	0.25	106	
20.535	-0.5	106.5	
20.54	-0.75	107	
20.545	0.25	107.3	
20.55	0.25	107.8	
20.555	-0.5	107.8	
20.56	-0.75	108.3	
20.565	0.25	108.3	
20.57	0	107.8	
20.575	-0.75	107.3	
20.58	-0.75	106.8	
20.585	0	106	
20.59	0	105	
20.595	-0.75	104	
20.6	-1.25	103.3	
20.605	-0.5	102	
20.61	-0.5	101	
20.615	-1.5	100	
20.62	-1.75	98.5	
20.625	-1	97.5	
20.63	-1	96	
20.635	-2	95.3	
20.64	-1.75	93.8	
20.645	-1	92.8	
20.65	-1	91.5	
20.655	-2	90.8	
20.66	-2.25	89.5	
20.665	-1.25	88.5	
20.67	-1.25	87.5	
20.675	-2.25	86.5	
20.68	-2.5	85.8	
20.685	-1.5	85	
20.69	-1.5	84.5	
20.695	-2.25	84	
20.7	-2.5	83.5	
20.705	-1.25	83	
20.71	-1.5	82.3	
20.715	-2.25	81.8	
20.72	-2.5	81	
20.725	-1.25	80.5	
20.73	-1.25	80	
20.735	-2.25	79.5	
20.74	-2.5	79	
20.745	-1.5	78.8	
20.75	-1.5	78	
20.755	-2.5	77.8	
20.76	-2.75	77.5	
20.765	-1.75	77	
20.77	-1.75	77	
20.775	-2.5	76.8	
20.78	-2.75	77	
20.785	-1.75	77.3	
20.79	-1.75	77.5	
20.795	-3	77.8	
20.8	-2.75	78	
20.805	-2	78.3	
20.81	-2	78.8	
20.815	-2.75	79.5	
20.82	-3	79.8	
20.825	-2	80.3	
20.83	-2	80.8	
20.835	-3	81.3	
20.84	-3	81.8	
20.845	-2	82	
20.85	-2	82.5	
20.855	-3	83	
20.86	-3.25	83.5	
20.865	-2	84	
20.87	-2.25	84.3	
20.875	-3.25	84.8	
20.88	-3	84.5	
20.885	-2.5	85	
20.89	-2.5	85	
20.895	-3.25	84.8	
20.9	-3.5	84.8	
20.905	-2.5	84.5	
20.91	-2.5	84.5	
20.915	-3	84.3	
20.92	-3.25	84	
20.925	-2.75	83.8	
20.93	-2.75	83.3	
20.935	-3	83	
20.94	-3	83	
20.945	-2.5	82.5	
20.95	-2.5	82.3	
20.955	-3	81.8	
20.96	-3	81.3	
20.965	-2.5	81	
20.97	-2.5	80.5	
20.975	-3	80	
20.98	-3.5	79.5	
20.985	-2.75	79.3	
20.99	-2.75	79	
20.995	-3.25	78.5	
21	-3.25	77.8	
21.005	-2.75	77.5	
21.01	-2.75	77	
21.015	-3.25	76.5	
21.02	-3.25	76.3	
21.025	-3	75.8	
21.03	-3	75.8	
21.035	-3.5	75.3	
21.04	-3.5	74.8	
21.045	-3	74.5	
21.05	-3	74	
21.055	-3	73.8	
21.06	-3	73.5	
21.065	-1.75	73	
21.07	-0.75	73	
21.075	-0.25	72.5	
21.08	-0.25	72.3	
21.085	-0.25	72.3	
21.09	-1.5	71.8	
21.095	-3	71.5	
21.1	-3	71.5	
21.105	-2.25	71	
21.11	-3.5	71	
21.115	-6.25	70.5	
21.12	-8	70.5	
21.125	-8	70.3	
21.13	-8	70.3	
21.135	-9	69.8	
21.14	-8.75	69.8	
21.145	-6.5	69.5	
21.15	-6.5	69.5	
21.155	-6.75	69.3	
21.16	-6.75	69	
21.165	-6.25	69	
21.17	-6.25	68.8	
21.175	-6.5	68.8	
21.18	-6.5	68.3	
21.185	-5.75	68	
21.19	-5.25	68	
21.195	-5.75	67.8	
21.2	-5.75	67.8	
21.205	-5.75	67.8	
21.21	-7.5	67.8	
21.215	-11.25	67.5	
21.22	-14	67.5	
21.225	-13.75	67	
21.23	-5.25	67	
21.235	16.25	66.8	
21.24	47.75	66.5	
21.245	83.5	66.5	
21.25	83.75	66.5	
21.255	64.75	66.5	
21.26	45.5	66.3	
21.265	24.5	66.3	
21.27	5.25	66	
21.275	-7.25	66	
21.28	-11.25	65.8	
21.285	-10.75	65.5	
21.29	-10.75	65.3	
21.295	-10.75	65.3	
21.3	-9	65	
21.305	-6.5	65	
21.31	-5.75	64.8	
21.315	-5.75	64.8	
21.32	-5.75	64.8	
21.325	-4.75	64.5	
21.33	-4.75	64.5	
21.335	-4.75	64.3	
21.34	-4.75	64	
21.345	-4	63.8	
21.35	-3.75	63.8	
21.355	-4	63.5	
21.36	-4	63.5	
21.365	-3	63.5	
21.37	-3	63.3	
21.375	-3	63.3	
21.38	-3	63	
21.385	-2.5	63	
21.39	-2.25	63	
21.395	-2.25	62.5	
21.4	-2.25	62.5	
21.405	-1.25	62.5	
21.41	-1	62.5	
21.415	-1.75	62.5	
21.42	-1.5	62.5	
21.425	-0.25	62.3	
21.43	-0.25	62.3	
21.435	-0.75	62	
21.44	-0.5	62	
21.445	1	61.8	
21.45	1.5	61.8	
21.455	1.5	61.8	
21.46	2	61.8	
21.465	3.75	61.5	
21.47	4.75	61.5	
21.475	5	61.5	
21.48	5.5	61	
21.485	7.5	61	
21.49	8.25	60.8	
21.495	8.25	60.8	
21.5	9	60.8	
21.505	10.75	60.5	
21.51	11.5	60.5	
21.515	11.5	60.5	
21.52	11.75	60.5	
21.525	12.75	60.8	
21.53	12.5	61.5	
21.535	10.75	62.5	
21.54	10	64	
21.545	9.75	66.5	
21.55	8.25	69.8	
21.555	5.75	73.3	
21.56	4	77.3	
21.565	3.5	81.5	
21.57	2	86	
21.575	-0.25	90.3	
21.58	-1.25	94.3	
21.585	-1.75	97.8	
21.59	-2.25	100.5	
21.595	-3.75	103	
21.6	-4.25	104.5	
21.605	-3.5	105.5	
21.61	-3.5	106.3	
21.615	-4.5	106.8	
21.62	-4.75	107.3	
21.625	-3.75	107.5	
21.63	-4	108	
21.635	-4.75	108.3	
21.64	-5	108.8	
21.645	-4	108.8	
21.65	-4.25	108.5	
21.655	-5.25	108	
21.66	-5	107.5	
21.665	-4.25	106.8	
21.67	-4	106	
21.675	-5	105.3	
21.68	-5	104.3	
21.685	-4	103	
21.69	-4.25	102.3	
21.695	-5	101	
21.7	-5.25	99.8	
21.705	-4.25	98.8	
21.71	-4.25	97.5	
21.715	-5	96.5	
21.72	-5	95.3	
21.725	-4	94	
21.73	-4	93	
21.735	-5	92	
21.74	-5.25	91.3	
21.745	-4.25	90.3	
21.75	-4.25	89.5	
21.755	-5.25	88.8	
21.76	-5.25	88	
21.765	-4.25	87	
21.77	-4.25	86.8	
21.775	-5.25	86	
21.78	-5.25	85.5	
21.785	-4	84.8	
21.79	-4.5	84.5	
21.795	-5	83.8	
21.8	-5.25	83.5	
21.805	-4.25	83	
21.81	-4.25	82.8	
21.815	-5	82.5	
21.82	-5.25	81.8	
21.825	-4.5	81.3	
21.83	-4.5	80.8	
21.835	-5.5	80.5	
21.84	-5.5	80	
21.845	-4.5	79.5	
21.85	-4.5	79.3	
21.855	-5.5	79	
21.86	-5.5	79	
21.865	-4.5	78.8	
21.87	-4.25	78.8	
21.875	-5	78.5	
21.88	-5.25	78.5	
21.885	-4.25	79	
21.89	-4.25	79.3	
21.895	-5	79.5	
21.9	-5	80	
21.905	-4.25	80.3	
21.91	-4.25	80.8	
21.915	-5.25	81.3	
21.92	-5.25	81.5	
21.925	-4.75	81.8	
21.93	-4.5	82	
21.935	-4.75	82.8	
21.94	-5	83	
21.945	-4.25	83.3	
21.95	-4.25	83.5	
21.955	-4.75	84	
21.96	-4.75	84	
21.965	-4.25	84.5	
21.97	-4.25	84.5	
21.975	-4.5	84.5	
21.98	-4.75	84.5	
21.985	-4.25	84.5	
21.99	-4.25	84.5	
21.995	-4.5	84.5	
22	-4.5	84.3	
22.005	-4.25	84	
22.01	-4.25	84	
22.015	-4.25	83.8	
22.02	-4.5	83.5	
22.025	-4	83	
22.03	-3.75	82.8	
22.035	-4.5	82.5	
22.04	-4.5	82.3	
22.045	-4	81.8	
22.05	-4	81.5	
22.055	-4.5	81	
22.06	-4.5	80.8	
22.065	-4	80.5	
22.07	-4	79.8	
22.075	-4.5	79.3	
22.08	-4.5	79	
22.085	-4	78.8	
22.09	-3.5	78.3	
22.095	-4	77.8	
22.1	-4.5	77.3	
22.105	-4	77	
22.11	-3.75	76.5	
22.115	-4.25	76	
22.12	-4.5	75.8	
22.125	-4	75.3	
22.13	-4	75	
22.135	-4.25	74.8	
22.14	-4.25	74.5	
22.145	-3	74	
22.15	-2.5	73.8	
22.155	-2.5	73.5	
22.16	-1.75	73.3	
22.165	-0.75	73	
22.17	-0.75	72.8	
22.175	-2.25	72.5	
22.18	-3.75	72	
22.185	-3.75	71.8	
22.19	-3	71.5	
22.195	-3.75	71.3	
22.2	-5.25	71	
22.205	-6.25	71	
22.21	-7.75	70.8	
22.215	-9.25	70.5	
22.22	-9.25	70.3	
22.225	-8.25	70	
22.23	-7	70	
22.235	-7	69.5	
22.24	-7	69.5	
22.245	-6	69.3	
22.25	-5.75	69.3	
22.255	-6	68.8	
22.26	-6	68.8	
22.265	-5.5	68.5	
22.27	-5.25	68.5	
22.275	-5.25	68.5	
22.28	-5.25	68	
22.285	-4.75	68	
22.29	-4.75	67.8	
22.295	-7.25	67.8	
22.3	-9.75	67.5	
22.305	-11.75	67.5	
22.31	-13.25	67.3	
22.315	-10	67.3	
22.32	7.25	66.8	
22.325	35.75	66.8	
22.33	72.5	66.5	
22.335	85	66.5	
22.34	70	66.5	
22.345	54.25	66.3	
22.35	35.5	66.3	
22.355	14.5	66	
22.36	-0.25	66	
22.365	-6.75	65.8	
22.37	-7.75	65.5	
22.375	-9.25	65.5	
22.38	-9.5	65.3	
22.385	-8	65	
22.39	-5.75	65	
22.395	-5.25	65	
22.4	-4.5	64.8	
22.405	-2.75	64.8	
22.41	-2.75	64.8	
22.415	-3.25	64.5	
22.42	-3.25	64.3	
22.425	-2.25	64	
22.43	-2.25	64	
22.435	-2.75	63.8	
22.44	-2.5	63.8	
22.445	-1.25	63.5	
22.45	-1	63.5	
22.455	-1.75	63.5	
22.46	-1.75	63.3	
22.465	-0.5	63.3	
22.47	-0.25	63.3	
22.475	-1	62.8	
22.48	-1	62.8	
22.485	0.25	62.8	
22.49	0.5	62.8	
22.495	-0.25	62.8	
22.5	-0.25	62.8	
22.505	1	62.8	
22.51	1	62.8	
22.515	0.5	62.3	
22.52	0.75	62.3	
22.525	2	62	
22.53	2.5	62	
22.535	2.25	62	
22.54	2.75	61.8	
22.545	4.25	61.8	
22.55	5	61.8	
22.555	5	61.5	
22.56	5.75	61.5	
22.565	7.75	61.3	
22.57	8.25	61.3	
22.575	8.75	61	
22.58	9	61	
22.585	10.75	61	
22.59	11.75	60.5	
22.595	11.75	60.5	
22.6	12.5	60.5	
22.605	14	60.5	
22.61	13.75	60.8	
22.615	12.75	61	
22.62	12.25	61.8	
22.625	12.75	64.5	
22.63	11.75	66	
22.635	9.5	68.3	
22.64	8.25	71.3	
22.645	8	74.8	
22.65	6.5	78.5	
22.655	4	83	
22.66	2.5	87.3	
22.665	2.25	91.3	
22.67	1.25	95	
22.675	-0.5	98.5	
22.68	-0.75	100.8	
22.685	-0.5	102.8	
22.69	-0.75	104	
22.695	-2	105	
22.7	-2	106	
22.705	-1.25	106.5	
22.71	-1.5	107	
22.715	-2.5	107.5	
22.72	-2.5	107.8	
22.725	-1.5	107.8	
22.73	-1.75	108.3	
22.735	-2.5	108	
22.74	-2.5	108	
22.745	-1.5	107.8	
22.75	-1.25	107.3	
22.755	-2.5	106.5	
22.76	-2.75	105.5	
22.765	-1.75	104.5	
22.77	-1.75	103.5	
22.775	-2.5	102.5	
22.78	-3	101.5	
22.785	-2	100.5	
22.79	-1.75	99.5	
22.795	-2.75	98.3	
22.8	-2.75	97	
22.805	-1.75	96	
22.81	-1.5	95	
22.815	-2.25	93.8	
22.82	-2.5	92.8	
22.825	-1.75	91.5	
22.83	-1.75	90.5	
22.835	-2.75	89.5	
22.84	-2.75	88.8	
22.845	-1.5	88	
22.85	-1.5	87.3	
22.855	-2.25	86.5	
22.86	-2.5	85.8	
22.865	-1.75	85.3	
22.87	-2	84.8	
22.875	-2.75	84.5	
22.88	-2.5	84	
22.885	-1.75	83.3	
22.89	-1.75	82.8	
22.895	-2.5	82.3	
22.9	-2.75	81.8	
22.905	-1.75	81.5	
22.91	-1.75	80.8	
22.915	-2.75	80.3	
22.92	-3	79.8	
22.925	-2.5	79.5	
22.93	-2.25	79	
22.935	-2.75	78.8	
22.94	-3	78.5	
22.945	-2.25	78.5	
22.95	-2.25	78.3	
22.955	-2.75	78	
22.96	-2.75	78.5	
22.965	-2.5	78.8	
22.97	-2.25	79	
22.975	-2.5	79.3	
22.98	-2.75	79.5	
22.985	-2.5	79.8	
22.99	-2.5	80.3	
22.995	-2.75	80.8	
23	-2.75	81.3	
23.005	-2.5	81.5	
23.01	-2.5	82	
23.015	-2.75	82.3	
23.02	-3.25	82.8	
23.025	-2.5	83.3	
23.03	-2.5	83.5	
23.035	-3	84	
23.04	-3	84.3	
23.045	-2.5	84.5	
23.05	-2.25	84.8	
23.055	-3	85	
23.06	-3	85	
23.065	-2	85	
23.07	-2	85	
23.075	-2.75	85	
23.08	-2.75	84.8	
23.085	-2.5	84.5	
23.09	-2.25	84.5	
23.095	-2.5	84	
23.1	-2.5	83.8	
23.105	-2	84	
23.11	-2	83.5	
23.115	-2	83.3	
23.12	-2.25	83	
23.125	-1.75	82.5	
23.13	-1.75	82	
23.135	-2.5	81.8	
23.14	-2.5	81.3	
23.145	-2.25	80.8	
23.15	-2.25	80.3	
23.155	-2.5	80	
23.16	-2.5	79.8	
23.165	-1.75	79.5	
23.17	-1.75	79	
23.175	-2.25	78.8	
23.18	-2.5	78.5	
23.185	-2	78	
23.19	-1.75	77.3	
23.195	-2.25	77	
23.2	-2.25	76.5	
23.205	-1.75	76	
23.21	-1.5	75.8	
23.215	-1.75	75.5	
23.22	-1.75	75.5	
23.225	-1	75	
23.23	-0.25	74.8	
23.235	-0.25	74.5	
23.24	-0.25	74	
23.245	-0.25	73.8	
23.25	-1.5	73.8	
23.255	-3.25	73.3	
23.26	-3.25	73	
23.265	-1.75	72.8	
23.27	-1.75	72.5	
23.275	-4.5	72.3	
23.28	-6.25	72	
23.285	-6.5	72	
23.29	-6.75	71.8	
23.295	-7.5	71.5	
23.3	-7.5	71.3	
23.305	-5	71	
23.31	-4.5	71	
23.315	-5	70.5	
23.32	-5	70.5	
23.325	-4.25	70.5	
23.33	-4	70.3	
23.335	-4.25	70.3	
23.34	-4.25	70	
23.345	-3.25	69.8	
23.35	-3.25	69.5	
23.355	-3.25	69.5	
23.36	-3.5	69.3	
23.365	-4.25	69.3	
23.37	-7.25	69	
23.375	-11.75	69	
23.38	-13.75	68.8	
23.385	-11.75	68.5	
23.39	1.25	68.3	
23.395	25	68.3	
23.4	60.25	68.3	
23.405	90.5	68	
23.41	81.75	68	
23.415	64.75	67.8	
23.42	47.75	67.8	
23.425	28.25	67.8	
23.43	10	67.5	
23.435	-2	67.3	
23.44	-6.75	67.3	
23.445	-6.5	67	
23.45	-7.75	67	
23.455	-8	66.8	
23.46	-6.25	66.8	
23.465	-3.5	66.8	
23.47	-2.5	66.8	
23.475	-3	66.5	
23.48	-2.5	66.3	
23.485	-1.25	66.3	
23.49	-1	66	
23.495	-1.75	65.8	
23.5	-1.5	66	
23.505	-0.25	65.5	
23.51	0	65.5	
23.515	-0.75	65.5	
23.52	-1	65.5	
23.525	0.25	65.3	
23.53	0.25	65.3	
23.535	-0.25	65.3	
23.54	0	65	
23.545	1	64.8	
23.55	1	64.8	
23.555	0.25	64.5	
23.56	0.25	64.5	
23.565	1.5	64.5	
23.57	1.75	64.5	
23.575	1	64.5	
23.58	0.75	64.5	
23.585	2	64.5	
23.59	2.5	64	
23.595	2	64	
23.6	2	64	
23.605	3.5	63.8	
23.61	3.75	64	
23.615	3.25	63.5	
23.62	3.75	63.5	
23.625	5.25	63.3	
23.63	6.25	63.3	
23.635	6.25	63	
23.64	6.75	63	
23.645	8.5	63	
23.65	9.25	62.5	
23.655	9	62.5	
23.66	9.5	62.3	
23.665	11.5	62.3	
23.67	12.25	62	
23.675	12	62	
23.68	12.25	61.8	
23.685	13.25	62	
23.69	13	62.5	
23.695	11.75	63.3	
23.7	11	64.8	
23.705	11	66.5	
23.71	9.5	68.8	
23.715	7.25	71.5	
23.72	5.5	75	
23.725	5	79	
23.73	3.75	83.3	
23.735	1.75	87.5	
23.74	1	91.5	
23.745	1.25	95	
23.75	0.75	97.8	
23.755	-0.5	100.5	
23.76	-1	102	
23.765	-0.75	103.8	
23.77	-1	104.5	
23.775	-2.25	105.3	
23.78	-2	105.8	
23.785	-0.75	106.3	
23.79	-1	106.5	
23.795	-2	107	
23.8	-2	107.3	
23.805	-1	107.3	
23.81	-1.25	107	
23.815	-2	107	
23.82	-2	106.8	
23.825	-1	106	
23.83	-1	105.3	
23.835	-2	104.5	
23.84	-2.25	103.8	
23.845	-1.5	102.5	
23.85	-1.25	101.5	
23.855	-2.25	100.8	
23.86	-2.25	100.3	
23.865	-1.25	100	
23.87	-1.5	100	
23.875	-2.5	99.8	
23.88	-2.75	99.5	
23.885	-2	99	
23.89	-2	98.5	
23.895	-2.25	97.8	
23.9	-2.25	97.3	
23.905	-1.25	96.5	
23.91	-2	96	
23.915	-3.25	95.8	
23.92	-3.25	95.5	
23.925	-2	95.3	
23.93	-1.75	95	
23.935	-2.75	94.8	
23.94	-3	94.5	
23.945	-2.25	94.3	
23.95	-2	94	
23.955	-3	94	
23.96	-3	93.8	
23.965	-2	93.8	
23.97	-2.25	93.8	
23.975	-3.25	93.5	
23.98	-3.5	93.5	
23.985	-2.5	93.5	
23.99	-2.5	93.5	
23.995	-3	93.5	
24	-3.5	93.3	
24.005	-2.5	93.3	
24.01	-2.5	93.3	
24.015	-3.5	93.3	
24.02	-3.5	93.3	
24.025	-2.5	93.3	
24.03	-2.5	93.3	
24.035	-3.5	93.5	
24.04	-3.75	93.5	
24.045	-2.75	93.5	
24.05	-2.75	93.5	
24.055	-3.75	93.5	
24.06	-3.75	93.5	
24.065	-2.75	93.5	
24.07	-3	93.8	
24.075	-3.75	93.8	
24.08	-4	93.8	
24.085	-3	93.8	
24.09	-3	93.8	
24.095	-3.75	93.8	
24.1	-4	93.8	
24.105	-3	93.8	
24.11	-3.25	93.5	
24.115	-4	93.5	
24.12	-4	93.5	
24.125	-3	93.3	
24.13	-3.25	93.3	
24.135	-4	93.3	
24.14	-4	93.3	
24.145	-3	93.3	
24.15	-3	93.5	
24.155	-4	93.5	
24.16	-4	93.3	
24.165	-3.25	93.3	
24.17	-3	93.3	
24.175	-4.25	93.3	
24.18	-4.25	93.3	
24.185	-3.25	93	
24.19	-3.25	93.3	
24.195	-4.25	93	
24.2	-4	93.5	
24.205	-3	93.3	
24.21	-3	93.3	
24.215	-4	93.3	
24.22	-4.25	93.3	
24.225	-3.5	93	
24.23	-3.25	93.3	
24.235	-4.5	93.3	
24.24	-4.5	93.3	
24.245	-3.5	93.3	
24.25	-3.25	93.3	
24.255	-4	93.3	
24.26	-4.25	93.3	
24.265	-3.25	93	
24.27	-3.25	93	
24.275	-3.75	93	
24.28	-3.75	93.5	
24.285	-2.75	93.3	
24.29	-2.25	93.3	
24.295	-1.5	93.3	
24.3	-0.25	93.3	
24.305	0.5	93.3	
24.31	-0.5	93.3	
24.315	-2	93.3	
24.32	-2.25	93.3	
24.325	-1.25	93.3	
24.33	-1.75	93.3	
24.335	-4.5	93.3	
24.34	-6.75	93.3	
24.345	-7.25	93.3	
24.35	-7.75	93.3	
24.355	-9.25	93.5	
24.36	-9	93.3	
24.365	-6.75	93.3	
24.37	-6.5	93.3	
24.375	-7.5	93.3	
24.38	-7.75	93.3	
24.385	-6.25	93.3	
24.39	-6.25	93.3	
24.395	-7.25	93.3	
24.4	-7.25	93.3	
24.405	-6.25	93.3	
24.41	-6.25	93.3	
24.415	-6.25	93.3	
24.42	-6.25	93.3	
24.425	-5.75	93.3	
24.43	-6.75	93.3	
24.435	-9.75	93.3	
24.44	-12.75	93.3	
24.445	-13.75	93.3	
24.45	-13.25	93.3	
24.455	-2.25	93.3	
24.46	22.5	93.3	
24.465	58	93.3	
24.47	87.25	93.3	
24.475	79.25	93.3	
24.48	60.75	93.3	
24.485	42.25	93.3	
24.49	20.25	93.3	
24.495	1.75	93.3	
24.5	-8.5	93.3	
24.505	-10.25	93.3	
24.51	-10.75	93.3	
24.515	-12	93.3	
24.52	-11	93.3	
24.525	-7.75	93.3	
24.53	-6.25	93	
24.535	-6.25	93	
24.54	-6.25	93	
24.545	-5	93.3	
24.55	-5	93	
24.555	-5	93.5	
24.56	-5	93.3	
24.565	-4	93	
24.57	-4	93	
24.575	-4.25	93	
24.58	-4.25	93.3	
24.585	-3.25	93.3	
24.59	-3.25	93.3	
24.595	-3.5	93.3	
24.6	-3.5	93.3	
24.605	-2.75	93.3	
24.61	-2.75	93.3	
24.615	-2.75	93.3	
24.62	-2.75	93.3	
24.625	-1.75	93	
24.63	-1.75	93	
24.635	-1.75	93	
24.64	-1.75	93	
24.645	-1	93	
24.65	-0.75	93	
24.655	-0.75	93	
24.66	-0.75	93.3	
24.665	0.5	93.3	
24.67	1	93.3	
24.675	1	93.3	
24.68	1.25	93.3	
24.685	3	93.3	
24.69	3.75	93.3	
24.695	3.75	93.3	
24.7	4.5	93.3	
24.705	6.5	93.3	
24.71	7	93.3	
24.715	7	93.3	
24.72	8	93.3	
24.725	9.75	93.3	
24.73	10.5	93.3	
24.735	10.5	93.3	
24.74	11	93.3	
24.745	12.5	93.3	
24.75	12.75	93.3	
24.755	11.75	93.3	
24.76	11	93.3	
24.765	11	93.5	
24.77	9.5	93.5	
24.775	7.5	93.5	
24.78	5.75	93.8	
24.785	5.5	93.5	
24.79	4.25	93.5	
24.795	1.5	93.8	
24.8	0	93.8	
24.805	0	93.8	
24.81	-0.5	93.8	
24.815	-2	93.5	
24.82	-2.5	93.5	
24.825	-2.5	93.3	
24.83	-2.5	93	
24.835	-3.25	93.3	
24.84	-3.5	93	
24.845	-3.5	93	
24.85	-3.5	93	
24.855	-4	93.3	
24.86	-4	93	
24.865	-3.5	93	
24.87	-3.5	93	
24.875	-4	93	
24.88	-4	93	
24.885	-3.5	93.3	
24.89	-3.5	93.3	
24.895	-3.75	93.3	
24.9	-3.75	93.3	
24.905	-3.25	93.3	
24.91	-3.25	93.3	
24.915	-4.25	92.8	
24.92	-4.25	91.3	
24.925	-3.25	89.5	
24.93	-3.5	87.5	
24.935	-4.25	86.3	
24.94	-4.25	85.8	
24.945	-3.25	86	
24.95	-3.5	86.3	
24.955	-4.25	86.3	
24.96	-4	86	
24.965	-3	85.8	
24.97	-3.25	85.5	
24.975	-4	85	
24.98	-4.5	84.8	
24.985	-3.75	84.5	
24.99	-3.75	84	
24.995	-4.5	83.8	
25	-4.5	83.5	
25.005	-3.25	83.3	
25.01	-3.5	83	
25.015	-4.5	82.8	
25.02	-4.5	82.5	
25.025	-3.5	82.5	
25.03	-3.5	82.3	
25.035	-4.5	82.3	
25.04	-4.5	82.3	
25.045	-3.25	82	
25.05	-3.5	82	
25.055	-4.5	81.8	
25.06	-4.75	81.5	
25.065	-3.75	81.5	
25.07	-3.5	81.5	
25.075	-4.5	81.5	
25.08	-4.5	81.8	
25.085	-3.5	81.8	
25.09	-3.5	81.8	
25.095	-4.5	81.8	
25.1	-4.5	81.8	
25.105	-3.5	81.8	
25.11	-3.5	81.8	
25.115	-4.5	81.8	
25.12	-4.5	81.8	
25.125	-3.75	81.8	
25.13	-3.75	81.8	
25.135	-4.5	81.8	
25.14	-4.5	81.8	
25.145	-3.25	81.8	
25.15	-3.75	81.8	
25.155	-5	81.8	
25.16	-5	81.8	
25.165	-3.75	81.5	
25.17	-4	81.5	
25.175	-4.75	81.5	
25.18	-4.75	81.5	
25.185	-3.5	81.3	
25.19	-3.75	81.3	
25.195	-4.5	81.3	
25.2	-4.75	81.3	
25.205	-3.5	81.5	
25.21	-3.5	81.5	
25.215	-4.25	81.5	
25.22	-4.25	81.5	
25.225	-3.5	81.5	
25.23	-3.5	81.5	
25.235	-4.75	81.5	
25.24	-4.75	81.5	
25.245	-3.75	81.5	
25.25	-3.5	81.3	
25.255	-4.25	81.5	
25.26	-4.25	81.3	
25.265	-3.5	81.3	
25.27	-3.75	81.5	
25.275	-4.5	81.5	
25.28	-4.5	81.5	
25.285	-3.5	81.5	
25.29	-3.5	81.5	
25.295	-4.25	81.5	
25.3	-4	81.5	
25.305	-3	81.3	
25.31	-2.5	81.3	
25.315	-2	81.5	
25.32	-0.25	81.5	
25.325	1.75	81.5	
25.33	1.25	81.5	
25.335	-0.5	81.5	
25.34	-1.25	81.5	
25.345	0	81.5	
25.35	-0.25	81.5	
25.355	-2.75	81.5	
25.36	-5.5	81.5	
25.365	-6.5	81.5	
25.37	-7.5	81.5	
25.375	-8.75	81.5	
25.38	-8.75	81.5	
25.385	-7	81.5	
25.39	-6.25	81.5	
25.395	-7.25	81.5	
25.4	-7.5	81.5	
25.405	-6.25	81.5	
25.41	-6.25	81.5	
25.415	-6.5	81.5	
25.42	-6.5	81.5	
25.425	-6	81.3	
25.43	-6	81.3	
25.435	-6.25	81.3	
25.44	-6.25	81.5	
25.445	-5.25	81.5	
25.45	-5.75	81.5	
25.455	-8.5	81.5	
25.46	-11.5	81.5	
25.465	-13.25	81.5	
25.47	-14.25	81.5	
25.475	-7.5	81.5	
25.48	12.75	81.5	
25.485	45.25	81.5	
25.49	80.25	81.5	
25.495	81.25	81.5	
25.5	65	81.5	
25.505	49.5	81.5	
25.51	29.75	81.3	
25.515	9.5	81.5	
25.52	-3.5	81.5	
25.525	-8.5	81.5	
25.53	-9.5	81.5	
25.535	-11.25	81.5	
25.54	-11.25	81.5	
25.545	-9	81.5	
25.55	-6.75	81.5	
25.555	-6.5	81.5	
25.56	-5.75	81.5	
25.565	-4.5	81.5	
25.57	-4	81.5	
25.575	-4	81.5	
25.58	-4	81.5	
25.585	-3.25	81.5	
25.59	-3.25	81.5	
25.595	-3.5	81.5	
25.6	-3.25	81.5	
25.605	-2.25	81.5	
25.61	-2	81.5	
25.615	-2	81.3	
25.62	-2.25	81.5	
25.625	-1.75	81.5	
25.63	-1.5	81.5	
25.635	-1.5	81.5	
25.64	-1.5	81.5	
25.645	-0.5	81.5	
25.65	-0.5	81.5	
25.655	-0.5	81.5	
25.66	-0.5	81.5	
25.665	0.5	81.5	
25.67	0.5	81.3	
25.675	0	81.3	
25.68	0	81.3	
25.685	1.5	81.3	
25.69	1.75	81.5	
25.695	1.75	81.5	
25.7	2	81.5	
25.705	3.5	81.5	
25.71	4.25	81.5	
25.715	4.25	81.5	
25.72	5	81.5	
25.725	7.25	81.5	
25.73	8.25	81.5	
25.735	8.25	81.5	
25.74	8.5	81.5	
25.745	10.25	81.5	
25.75	10.75	81.5	
25.755	10.75	81.5	
25.76	11.5	81.5	
25.765	13.25	81.5	
25.77	13.25	81.5	
25.775	12.75	81.5	
25.78	12	81.5	
25.785	12	81.8	
25.79	11.25	81.8	
25.795	9	81.8	
25.8	7.75	82	
25.805	7.25	81.8	
25.81	5.5	81.8	
25.815	3.25	81.8	
25.82	2	81.8	
25.825	2	81.8	
25.83	1.25	81.5	
25.835	-0.5	81.5	
25.84	-1.25	81.5	
25.845	-1.25	81.3	
25.85	-1.25	81.3	
25.855	-2	81.3	
25.86	-2.25	81.3	
25.865	-1.75	81.3	
25.87	-1.75	81.3	
25.875	-2.25	81.3	
25.88	-2.5	81.5	
25.885	-2.25	81.3	
25.89	-2.25	81.3	
25.895	-2.5	81.3	
25.9	-2.5	81.3	
25.905	-1.75	81.3	
25.91	-2.25	81.3	
25.915	-3.25	81.3	
25.92	-3.25	81.3	
25.925	-2.25	81.3	
25.93	-2.25	81.5	
25.935	-3	81.5	
25.94	-3.25	81.3	
25.945	-2.25	81	
25.95	-2.25	80.8	
25.955	-3	80.8	
25.96	-3.25	81.5	
25.965	-2.5	82.8	
25.97	-2.75	84	
25.975	-3.25	85.3	
25.98	-3	85.8	
25.985	-2	85.8	
25.99	-2.25	85.5	
25.995	-3.25	85	
26	-3.25	84.8	
26.005	-2.25	84.3	
26.01	-2	83.8	
26.015	-2.75	83.8	
26.02	-3	84	
26.025	-2.5	84.3	
26.03	-2.75	84.5	
26.035	-3.5	84.8	
26.04	-3.5	84.8	
26.045	-2.5	84.5	
26.05	-2.5	84.3	
26.055	-3.5	84	
26.06	-3.5	83.5	
26.065	-2.5	83	
26.07	-2.75	82.5	
26.075	-3.25	82	
26.08	-4	81.8	
26.085	-3	81.3	
26.09	-3	80.8	
26.095	-3.75	80.5	
26.1	-3.75	80.3	
26.105	-3	80.3	
26.11	-3	79.8	
26.115	-3.75	80	
26.12	-4	79.8	
26.125	-3	80	
26.13	-3.25	80	
26.135	-3.75	80.3	
26.14	-3.75	80.8	
26.145	-2.75	80.8	
26.15	-3	81.3	
26.155	-4	81.8	
26.16	-4	82	
26.165	-2.75	82.3	
26.17	-2.75	82.8	
26.175	-3.75	83.5	
26.18	-3.75	83.8	
26.185	-2.75	84	
26.19	-3	84.5	
26.195	-3.25	84.8	
26.2	-3.5	84.8	
26.205	-2.5	85	
26.21	-2.5	85	
26.215	-3.5	85	
26.22	-3.75	85	
26.225	-2.75	84.8	
26.23	-2.75	85	
26.235	-3.5	84.8	
26.24	-3.5	84.5	
26.245	-2.75	84.5	
26.25	-3	84.3	
26.255	-4	84	
26.26	-3.75	83.8	
26.265	-2.5	83.8	
26.27	-2.5	83.5	
26.275	-3.75	83	
26.28	-3.75	82.8	
26.285	-2.5	82.3	
26.29	-2.25	82	
26.295	-3.25	81.8	
26.3	-2.5	81.5	
26.305	0.5	81	
26.31	2	80.5	
26.315	1.25	80.3	
26.32	0.5	80	
26.325	1.25	79.5	
26.33	1	79	
26.335	0	78.5	
26.34	-0.75	78.3	
26.345	-2.5	78	
26.35	-4.75	77.5	
26.355	-7	77	
26.36	-7.75	76.8	
26.365	-7	76.5	
26.37	-6.75	76.3	
26.375	-6.75	76	
26.38	-6.75	75.8	
26.385	-5.75	75.3	
26.39	-5.5	75	
26.395	-6.25	75	
26.4	-6.5	74.5	
26.405	-5.5	74	
26.41	-5.5	73.8	
26.415	-6.25	73.5	
26.42	-6.25	73.5	
26.425	-4.75	73.3	
26.43	-4.5	73	
26.435	-5.5	73	
26.44	-7.5	72.5	
26.445	-9.5	72.5	
26.45	-13	72.3	
26.455	-15.75	72	
26.46	-12.75	72	
26.465	3.5	71.5	
26.47	29.5	71.5	
26.475	65.5	71.5	
26.48	88.5	71.3	
26.485	77.25	71	
26.49	62.5	70.8	
26.495	44	70.8	
26.5	22.75	70.5	
26.505	6.25	70.5	
26.51	-4.25	70.3	
26.515	-8.75	70.3	
26.52	-9.75	69.8	
26.525	-9.75	69.8	
26.53	-9.25	69.5	
26.535	-8.25	69.5	
26.54	-6.25	69.5	
26.545	-4.25	69.3	
26.55	-4.25	69.3	
26.555	-4.25	69	
26.56	-4.25	69	
26.565	-3	68.5	
26.57	-3	68.5	
26.575	-3.25	68.3	
26.58	-3.25	68.3	
26.585	-2.25	68	
26.59	-2.25	68	
26.595	-2.5	68	
26.6	-2.5	68	
26.605	-1.75	68	
26.61	-1.5	67.5	
26.615	-1.5	67.5	
26.62	-1.5	67.5	
26.625	-1	67.5	
26.63	-0.75	67.5	
26.635	-1	67.5	
26.64	-1	67.5	
26.645	-0.5	67.3	
26.65	-0.25	67.3	
26.655	-0.5	67	
26.66	-0.5	67	
26.665	0.25	67	
26.67	0.25	67	
26.675	0.25	66.8	
26.68	0.25	66.8	
26.685	1.75	66.5	
26.69	2.25	66.3	
26.695	2.25	66	
26.7	2.5	66	
26.705	4	66	
26.71	4.5	66	
26.715	4.5	65.8	
26.72	5	65.5	
26.725	7	65.5	
26.73	7.5	65.3	
26.735	7.5	65	
26.74	8.25	65	
26.745	10.25	65	
26.75	10.5	65	
26.755	10.5	65	
26.76	10.5	65.3	
26.765	11	65.8	
26.77	11	66.3	
26.775	9	68	
26.78	7.75	70.5	
26.785	7.75	73	
26.79	6.5	76.3	
26.795	4	80	
26.8	2.75	83.8	
26.805	2.5	87.8	
26.81	1.25	91.5	
26.815	-0.25	94.8	
26.82	-1.25	97.5	
26.825	-1	100	
26.83	-1	101.8	
26.835	-2.25	102.8	
26.84	-2.5	103.8	
26.845	-2.25	104.8	
26.85	-2.25	105.3	
26.855	-2.75	105.8	
26.86	-3	106.3	
26.865	-2	106.8	
26.87	-2	107	
26.875	-3	107.5	
26.88	-3.25	107.3	
26.885	-2.75	107.3	
26.89	-2.75	106.8	
26.895	-3	106.3	
26.9	-3	105.8	
26.905	-2	105	
26.91	-2	104	
26.915	-3	103.5	
26.92	-3	102.5	
26.925	-2.25	101.8	
26.93	-2.5	100.8	
26.935	-3.25	99.8	
26.94	-3.5	98.8	
26.945	-2.5	97.8	
26.95	-2.5	96.5	
26.955	-3.5	95.5	
26.96	-3.5	94.5	
26.965	-2.5	93.5	
26.97	-2.5	92.8	
26.975	-3.5	92	
26.98	-3.75	91.3	
26.985	-2.75	90.5	
26.99	-3	89.8	
26.995	-3.75	89.3	
27	-3.75	88.5	
27.005	-3	88	
27.01	-3	87.3	
27.015	-4	87	
27.02	-4	86.3	
27.025	-3	86	
27.03	-3	85.5	
27.035	-4	85	
27.04	-4	84.3	
27.045	-3	84	
27.05	-3	83.3	
27.055	-4	82.5	
27.06	-4.25	82	
27.065	-3	81.8	
27.07	-3.25	81	
27.075	-4	80.8	
27.08	-4.25	80.8	
27.085	-3.25	80.8	
27.09	-3.5	80.5	
27.095	-4.5	80.5	
27.1	-4.5	80.5	
27.105	-3.5	80.8	
27.11	-3.5	81	
27.115	-4.5	81.3	
27.12	-4.5	81.3	
27.125	-3.75	81.8	
27.13	-3.75	82.3	
27.135	-4.5	82.5	
27.14	-4.75	83	
27.145	-3.75	83.3	
27.15	-4	83.8	
27.155	-4.5	84	
27.16	-4.5	84.5	
27.165	-3.5	85	
27.17	-3.5	85.5	
27.175	-4.5	85.8	
27.18	-4.75	86	
27.185	-3.5	86	
27.19	-3.5	86.3	
27.195	-4.5	86.5	
27.2	-4.75	86.5	
27.205	-3.5	86.5	
27.21	-3.5	86.5	
27.215	-4.5	86.5	
27.22	-4.5	86.3	
27.225	-3.5	86	
27.23	-3.5	86	
27.235	-4.5	85.8	
27.24	-4.5	85.3	
27.245	-3.5	85	
27.25	-3.25	84.8	
27.255	-4.5	84.3	
27.26	-4.5	84.3	
27.265	-3.75	83.8	
27.27	-4	83.5	
27.275	-4.75	83	
27.28	-4.75	82.5	
27.285	-3.75	82.3	
27.29	-4	81.8	
27.295	-4.75	81.5	
27.3	-4.75	81	
27.305	-4	80.8	
27.31	-4	80.3	
27.315	-5	80	
27.32	-5	79.8	
27.325	-4	79	
27.33	-4.25	78.8	
27.335	-5	78	
27.34	-4.75	77.8	
27.345	-3.5	77.5	
27.35	-3	77.3	
27.355	-2.75	77	
27.36	-1.25	76.5	
27.365	-0.25	76.5	
27.37	-1.25	76	
27.375	-3.25	75.8	
27.38	-4	75.5	
27.385	-2.75	75	
27.39	-2.25	75	
27.395	-5	74.5	
27.4	-7.25	74.5	
27.405	-7.75	74	
27.41	-8.75	73.8	
27.415	-9.75	73.8	
27.42	-9.75	73.5	
27.425	-8.5	73.5	
27.43	-7.5	73	
27.435	-7.75	73	
27.44	-7.75	73	
27.445	-7	72.5	
27.45	-7	72.5	
27.455	-7.5	72.3	
27.46	-7.5	72	
27.465	-6.75	71.8	
27.47	-6.5	71.5	
27.475	-6.75	71.5	
27.48	-6.75	71.3	
27.485	-6.25	71.3	
27.49	-6.5	71.3	
27.495	-9.5	71	
27.5	-12	70.8	
27.505	-13.5	70.5	
27.51	-15	70.5	
27.515	-10.25	70.3	
27.52	9.25	70.3	
27.525	40	70	
27.53	76.5	70	
27.535	83.5	70	
27.54	66.5	69.5	
27.545	48.75	69.5	
27.55	27.75	69.5	
27.555	6.75	69.3	
27.56	-6.75	69.3	
27.565	-11	69	
27.57	-11.5	68.8	
27.575	-12.75	68.8	
27.58	-12.5	68.5	
27.585	-9.5	68.3	
27.59	-8	68.3	
27.595	-7.75	68.3	
27.6	-7.5	68	
27.605	-6	67.8	
27.61	-6	67.8	
27.615	-6.25	67.5	
27.62	-6.25	67.5	
27.625	-5	67.3	
27.63	-4.75	67.3	
27.635	-5	67.3	
27.64	-5	67	
27.645	-4.25	67	
27.65	-4.25	66.5	
27.655	-4.5	66.5	
27.66	-4.5	66.3	
27.665	-3.75	66.3	
27.67	-3.5	66.3	
27.675	-3.75	66.3	
27.68	-3.75	66.3	
27.685	-3.25	66.3	
27.69	-3	66	
27.695	-3.25	65.8	
27.7	-3.25	65.8	
27.705	-2.5	65.5	
27.71	-2.25	65.5	
27.715	-2.5	65.3	
27.72	-2.5	65.3	
27.725	-1.25	65	
27.73	-1	65	
27.735	-1	65	
27.74	-0.75	65	
27.745	0.75	65	
27.75	1.75	64.5	
27.755	1.75	64.5	
27.76	2.5	64.3	
27.765	4.5	64	
27.77	5	63.8	
27.775	5.25	64	
27.78	6	63.5	
27.785	8	63.8	
27.79	8.75	63.5	
27.795	9	63.5	
27.8	9.5	63.3	
27.805	11	63.5	
27.81	11.25	64	
27.815	10.75	64.8	
27.82	10	66.3	
27.825	10	68.3	
27.83	8.75	70.8	
27.835	6.5	73.8	
27.84	5	77.3	
27.845	4.25	81.5	
27.85	2.75	85.8	
27.855	0.25	89.8	
27.86	-1.25	93.8	
27.865	-1.25	97.3	
27.87	-2	100	
27.875	-3.5	101.8	
27.88	-4.25	103.5	
27.885	-4	104.8	
27.89	-4	105.5	
27.895	-5.25	106.3	
27.9	-5.25	106.8	
27.905	-4.75	107.5	
27.91	-4.75	108.3	
27.915	-5.5	108.8	
27.92	-5.75	109	
27.925	-5	109.3	
27.93	-5	109.3	
27.935	-6	109	
27.94	-6	108.3	
27.945	-5	108	
27.95	-5.25	107.5	
27.955	-6	106.8	
27.96	-6.5	106	
27.965	-5.5	105	
27.97	-5.25	104.3	
27.975	-6	103.5	
27.98	-6	102.3	
27.985	-5	101.5	
27.99	-5.25	100.3	
27.995	-6.25	99.3	
28	-6.25	98.3	
28.005	-5.25	97.3	
28.01	-5.25	96.5	
28.015	-6	95.5	
28.02	-6	94.8	
28.025	-5	94	
28.03	-5.25	93	
28.035	-6.25	92.5	
28.04	-6.25	91.8	
28.045	-5	91	
28.05	-5.25	90.5	
28.055	-6.25	90.3	
28.06	-6.25	89.5	
28.065	-5.5	89	
28.07	-5.5	88.8	
28.075	-6.25	88.5	
28.08	-6.5	88	
28.085	-5.5	87.5	
28.09	-5.5	87.3	
28.095	-6.5	86.8	
28.1	-6.5	86	
28.105	-5.25	85.5	
28.11	-5.5	85	
28.115	-6.5	84.5	
28.12	-6.5	84	
28.125	-5.5	83.8	
28.13	-5.25	83.8	
28.135	-6.5	83.5	
28.14	-6.5	83.3	
28.145	-5.5	83.3	
28.15	-5.5	83	
28.155	-6.5	83	
28.16	-6.75	83.3	
28.165	-5.75	83.5	
28.17	-6	83.8	
28.175	-7	83.8	
28.18	-6.75	84	
28.185	-5.75	84.3	
28.19	-5.75	84.5	
28.195	-6.75	85	
28.2	-6.5	85.3	
28.205	-5.25	85.5	
28.21	-5.25	85.8	
28.215	-6.25	85.8	
28.22	-6.75	86	
28.225	-5.75	86.3	
28.23	-5.75	86.8	
28.235	-6.5	87	
28.24	-6.25	87	
28.245	-5.25	87	
28.25	-5.25	87.3	
28.255	-6	87.3	
28.26	-6.25	87	
28.265	-5.5	87	
28.27	-5.5	87	
28.275	-6.5	86.8	
28.28	-6.25	86.5	
28.285	-5.25	86.3	
28.29	-5.25	86	
28.295	-5.75	85.8	
28.3	-6	85.5	
28.305	-5	85.3	
28.31	-5.25	85	
28.315	-6.25	84.8	
28.32	-6.25	84.5	
28.325	-4.75	84	
28.33	-4.5	83.8	
28.335	-5.25	83.3	
28.34	-5.75	83	
28.345	-4.75	82.8	
28.35	-5	82.3	
28.355	-6	82	
28.36	-6	81.3	
28.365	-4.75	81	
28.37	-4.75	80.5	
28.375	-5.75	80	
28.38	-5.75	79.5	
28.385	-4.75	79.3	
28.39	-4.75	79	
28.395	-5.5	78.8	
28.4	-5.5	78.3	
28.405	-4.5	78	
28.41	-4.5	77.5	
28.415	-5	77.5	
28.42	-5.25	77	
28.425	-4.75	76.8	
28.43	-4.75	76.3	
28.435	-4.75	76	
28.44	-4.5	75.8	
28.445	-3	75.5	
28.45	-2.5	75	
28.455	-2.5	75	
28.46	-2.5	74.5	
28.465	-2.5	74.5	
28.47	-3.5	74.3	
28.475	-5.5	74	
28.48	-5.5	73.8	
28.485	-4.25	73.8	
28.49	-4.75	73.3	
28.495	-7.75	73.3	
28.5	-9.25	73	
28.505	-9.25	73	
28.51	-9.25	72.5	
28.515	-10	72.5	
28.52	-10	72.3	
28.525	-7.75	72	
28.53	-7.25	72	
28.535	-7.5	71.8	
28.54	-7.5	71.5	
28.545	-6.75	71.5	
28.55	-6.75	71.3	
28.555	-7.25	71	
28.56	-7.25	71	
28.565	-6.25	70.8	
28.57	-5.75	70.8	
28.575	-6	70.5	
28.58	-6.25	70.3	
28.585	-6.25	70.3	
28.59	-8.25	70	
28.595	-11.75	70	
28.6	-14.25	69.8	
28.605	-13.75	69.5	
28.61	-3	69	
28.615	19	69.3	
28.62	51.75	69	
28.625	83.25	68.8	
28.63	77.75	68.8	
28.635	59.5	68.8	
28.64	42.25	68.5	
28.645	23.25	68.5	
28.65	5.5	68.5	
28.655	-6.5	68	
28.66	-10.25	68	
28.665	-10.25	67.8	
28.67	-10.5	67.8	
28.675	-10.5	67.8	
28.68	-8.75	67.5	
28.685	-6	67.5	
28.69	-5.25	67	
28.695	-5.25	67	
28.7	-5.25	67	
28.705	-4.5	66.8	
28.71	-3.5	66.5	
28.715	-4.25	66.5	
28.72	-4.25	66.3	
28.725	-3.25	66.3	
28.73	-3.25	66	
28.735	-3.25	66	
28.74	-3.5	65.8	
28.745	-2.5	65.8	
28.75	-2.25	65.5	
28.755	-2.5	65.5	
28.76	-2.5	65.5	
28.765	-1.5	65.5	
28.77	-1.25	65.3	
28.775	-1.5	65	
28.78	-1.75	65	
28.785	-1	64.8	
28.79	-0.75	64.8	
28.795	-0.75	64.8	
28.8	-0.75	64.8	
28.805	0.25	64.5	
28.81	0.75	64.5	
28.815	0.5	64.5	
28.82	0.5	64.3	
28.825	1.75	64.3	
28.83	2.25	64.3	
28.835	2.25	64	
28.84	2.25	63.5	
28.845	4	63.8	
28.85	4.75	63.5	
28.855	4.75	63.3	
28.86	5.75	63.3	
28.865	7.5	63	
28.87	8.5	63	
28.875	8.5	62.8	
28.88	8.75	62.8	
28.885	10.5	62.5	
28.89	11.25	62.5	
28.895	11.25	62.5	
28.9	11.25	62.5	
28.905	12.5	62.8	
28.91	12.5	63.5	
28.915	11.5	65.3	
28.92	10.75	67.3	
28.925	10.5	69.5	
28.93	8.75	72.5	
28.935	6	76	
28.94	4.5	79.5	
28.945	4.5	83.8	
28.95	3.25	87.5	
28.955	1.25	91.3	
28.96	0	94.8	
28.965	0.25	97.8	
28.97	-0.5	99.8	
28.975	-1.75	101.8	
28.98	-2	102.8	
28.985	-1.25	103.8	
28.99	-1.75	104.5	
28.995	-2.5	105.3	
29	-2.75	106	
29.005	-2	106.8	
29.01	-2	107	
29.015	-2.75	107.5	
29.02	-3	107.8	
29.025	-2	107.8	
29.03	-2.25	107.3	
29.035	-3	106.8	
29.04	-3	106.5	
29.045	-2.25	106	
29.05	-2	105.3	
29.055	-3	104.5	
29.06	-3	103.8	
29.065	-2	102.8	
29.07	-2	101.8	
29.075	-3	100.8	
29.08	-3.25	99.8	
29.085	-2.25	98.8	
29.09	-2.25	97.8	
29.095	-3	96.8	
29.1	-2.75	95.8	
29.105	-1.75	94.8	
29.11	-1.75	93.8	
29.115	-2.5	92.8	
29.12	-3	92	
29.125	-2	91	
29.13	-2	90.3	
29.135	-2.75	89.5	
29.14	-2.75	88.8	
29.145	-1.75	88.3	
29.15	-1.75	87.8	
29.155	-2.75	87.3	
29.16	-2.75	86.8	
29.165	-1.75	86.3	
29.17	-1.75	85.8	
29.175	-2.5	85.3	
29.18	-2.5	84.8	
29.185	-1.5	84.3	
29.19	-1.75	83.8	
29.195	-2.75	83.3	
29.2	-2.75	82.8	
29.205	-1.75	82	
29.21	-1.75	81.8	
29.215	-2.5	81.3	
29.22	-2.75	81.3	
29.225	-1.75	81	
29.23	-2	80.8	
29.235	-2.75	80.8	
29.24	-3	80.5	
29.245	-2.25	80.5	
29.25	-2	80.8	
29.255	-2.75	81.3	
29.26	-2.75	81.3	
29.265	-1.75	81.5	
29.27	-1.75	82	
29.275	-2.5	82.3	
29.28	-2.75	82.5	
29.285	-2	83	
29.29	-2	83.3	
29.295	-2.75	83.5	
29.3	-2.75	83.8	
29.305	-1.75	84.3	
29.31	-1.5	84.8	
29.315	-2.25	85	
29.32	-2.5	85.3	
29.325	-1.75	85.5	
29.33	-1.25	85.8	
29.335	-2.25	85.8	
29.34	-2.5	86	
29.345	-1.25	86.3	
29.35	-1.5	86.3	
29.355	-2.25	86.3	
29.36	-2.25	86.3	
29.365	-1.25	86	
29.37	-1.5	86	
29.375	-2.25	85.8	
29.38	-2	85.3	
29.385	-1	85	
29.39	-1	84.8	
29.395	-1.75	84.8	
29.4	-1.75	84.3	
29.405	-0.75	84	
29.41	-0.75	83.5	
29.415	-1.25	83.5	
29.42	-1.25	83	
29.425	-1	82.5	
29.43	-1	82.3	
29.435	-1	81.8	
29.44	-1	81.5	
29.445	-0.5	81	
29.45	-0.5	80.8	
29.455	-1	80.5	
29.46	-1	79.8	
29.465	-0.25	79.5	
29.47	-0.25	79.3	
29.475	-0.75	78.8	
29.48	-0.75	78.3	
29.485	-0.25	78.3	
29.49	-0.25	77.8	
29.495	-0.5	77.3	
29.5	-0.5	77	
29.505	0.5	76.5	
29.51	1	76.3	
29.515	1.25	76	
29.52	2.5	75.8	
29.525	3.5	75.3	
29.53	2.75	75.3	
29.535	0.5	75	
29.54	-0.25	74.8	
29.545	0.75	74.8	
29.55	0.75	74.3	
29.555	-1.25	74	
29.56	-3.25	73.8	
29.565	-3.75	73.5	
29.57	-4.5	73.3	
29.575	-5.5	73.3	
29.58	-5.5	73	
29.585	-4	72.8	
29.59	-3.25	72.8	
29.595	-3.25	72.5	
29.6	-3.25	72.3	
29.605	-2.25	72	
29.61	-2.25	72	
29.615	-2.5	71.8	
29.62	-2.5	71.8	
29.625	-1.75	71.3	
29.63	-1.5	71.3	
29.635	-1.75	71.3	
29.64	-1.75	71	
29.645	-1	70.8	
29.65	-2	70.8	
29.655	-5.25	70.5	
29.66	-8.75	70.3	
29.665	-10.25	70.3	
29.67	-10	70	
29.675	0.5	70	
29.68	23.75	69.8	
29.685	58.5	69.5	
29.69	90.75	69.5	
29.695	84.25	69.5	
29.7	68	69.3	
29.705	52.25	69.3	
29.71	31.75	68.8	
29.715	12.75	68.8	
29.72	0.5	68.5	
29.725	-3.75	68.5	
29.73	-4.25	68.3	
29.735	-6	68.3	
29.74	-6	68.3	
29.745	-3.5	68	
29.75	-1.5	68	
29.755	-1.25	68	
29.76	-1	67.5	
29.765	0.25	67.5	
29.77	0.5	67.3	
29.775	0.25	67.3	
29.78	0.25	67	
29.785	1	67	
29.79	1.5	67	
29.795	1.25	66.8	
29.8	1.25	66.8	
29.805	2	66.5	
29.81	2.25	66.5	
29.815	1.75	66.3	
29.82	1.75	66.3	
29.825	2.5	66	
29.83	2.75	65.8	
29.835	2.75	65.8	
29.84	2.75	65.8	
29.845	3.5	65.8	
29.85	3.75	65.8	
29.855	3.75	65.8	
29.86	3.5	65.5	
29.865	4	65.3	
29.87	4	65.3	
29.875	4	65.3	
29.88	4	65	
29.885	4.75	65	
29.89	5	65	
29.895	5	64.8	
29.9	5	64.8	
29.905	7	64.8	
29.91	8	64.3	
29.915	7.75	64.5	
29.92	8.25	64.3	
29.925	10	63.8	
29.93	10.75	64	
29.935	10.75	63.8	
29.94	11.25	63.8	
29.945	12.75	63.5	
29.95	13.5	63.5	
29.955	13.25	63.3	
29.96	13.75	63.3	
29.965	15.25	63	
29.97	15.5	63.5	
29.975	14.5	64.3	
29.98	14	65	
29.985	14.25	66.8	
29.99	13.25	68.8	
29.995	11	71.5	
30	9.5	74.5	
30.005	9.5	78	
30.01	8.25	82	
30.015	6	85.8	
30.02	4.75	89.5	
30.025	4.75	93	
30.03	3.75	95.8	
30.035	2.25	98.3	
30.04	2	100.3	
30.045	2.25	101.8	
30.05	2	102.8	
30.055	1	103.5	
30.06	0.75	104.5	
30.065	1.5	105.3	
30.07	1.5	105.8	
30.075	0.5	106.3	
30.08	0.5	106.5	
30.085	1.5	106.8	
30.09	1.5	106.8	
30.095	0.5	106.8	
30.1	0.5	106.5	
30.105	1.25	106.3	
30.11	1.25	105.5	
30.115	0.25	105.3	
30.12	0.25	104.5	
30.125	1.25	103.8	
30.13	1.25	102.8	
30.135	0.25	102	
30.14	0	101.3	
30.145	1	100	
30.15	1	99	
30.155	0	98	
30.16	-0.25	96.8	
30.165	0.75	95.8	
30.17	1	94.8	
30.175	0	93.8	
30.18	-0.5	92.8	
30.185	0.5	92	
30.19	0.5	91	
30.195	-0.5	90.3	
30.2	-0.75	89.5	
30.205	0	88.8	
30.21	0	88	
30.215	-1	87.5	
30.22	-1.25	86.8	
30.225	0	86.5	
30.23	0	86	
30.235	-1	85.5	
30.24	-1.25	84.8	
30.245	-0.25	84.3	
30.25	0	83.8	
30.255	-1	83.3	
30.26	-1.25	82.8	
30.265	-0.25	82	
30.27	-0.5	81.5	
30.275	-1.5	81	
30.28	-1.5	80.5	
30.285	-0.75	80.3	
30.29	-0.5	80	
30.295	-1.25	79.8	
30.3	-1.5	80	
30.305	-0.5	80	
30.31	-0.5	80	
30.315	-1.5	80.3	
30.32	-1.75	80	
30.325	-0.75	80.3	
30.33	-0.75	80.8	
30.335	-1.5	81	
30.34	-1.75	81.3	
30.345	-0.5	81.8	
30.35	-1	82	
30.355	-1.75	82.5	
30.36	-1.75	82.8	
30.365	-0.75	83.3	
30.37	-0.75	83.5	
30.375	-1.75	84	
30.38	-1.75	84.5	
30.385	-0.75	84.8	
30.39	-0.75	85	
30.395	-1.75	85.3	
30.4	-1.5	85.5	
30.405	-0.75	85.5	
30.41	-0.75	85.5	
30.415	-1.25	85.5	
30.42	-1.25	85.5	
30.425	-1	85.8	
30.43	-1	85.5	
30.435	-1.5	85.5	
30.44	-1.5	85.3	
30.445	-1	85	
30.45	-1	84.8	
30.455	-1.5	84.5	
30.46	-1.75	84.5	
30.465	-1.25	84	
30.47	-1.25	83.5	
30.475	-1.5	83.3	
30.48	-1.75	83	
30.485	-1	82.8	
30.49	-1	82.3	
30.495	-1.25	81.8	
30.5	-1.75	81.5	
30.505	-1.25	81	
30.51	-1.25	80.8	
30.515	-1.75	80.3	
30.52	-1.75	80	
30.525	-1.5	79.5	
30.53	-1.5	79.3	
30.535	-1.75	78.8	
30.54	-2	78.3	
30.545	-1.5	77.8	
30.55	-1.5	77.5	
30.555	-2	77.3	
30.56	-2.25	76.8	
30.565	-1.75	76.5	
30.57	-1.5	76	
30.575	-1.5	76	
30.58	-1.5	75.5	
30.585	-0.5	75.3	
30.59	1	74.8	
30.595	1.5	74.5	
30.6	1.75	74.5	
30.605	1.75	74	
30.61	1	73.8	
30.615	-0.5	73.8	
30.62	-0.5	73.3	
30.625	-0.25	73	
30.63	-1.25	72.8	
30.635	-3.75	72.8	
30.64	-5.75	72.3	
30.645	-5.75	72.3	
30.65	-6	72.3	
30.655	-6.75	71.8	
30.66	-6.5	71.5	
30.665	-4.5	71.5	
30.67	-4.5	71.3	
30.675	-5	71.3	
30.68	-5.25	70.8	
30.685	-4.75	70.8	
30.69	-4.5	70.5	
30.695	-4.75	70.5	
30.7	-4.75	70.3	
30.705	-4	70.3	
30.71	-4	69.8	
30.715	-4	69.8	
30.72	-4.25	69.5	
30.725	-4.25	69.5	
30.73	-5.25	69.3	
30.735	-8.5	69.3	
30.74	-11	69.3	
30.745	-11.75	68.8	
30.75	-7.25	68.8	
30.755	9.75	68.5	
30.76	38.25	68.3	
30.765	76.25	68	
30.77	89.75	68	
30.775	73.25	68	
30.78	54.25	68	
30.785	34	67.8	
30.79	13	67.5	
30.795	-2.25	67.3	
30.8	-8.75	67	
30.805	-8.5	67	
30.81	-9	67	
30.815	-9	67	
30.82	-8	66.8	
30.825	-4.75	66.8	
30.83	-3.75	66.5	
30.835	-3.75	66.3	
30.84	-3.75	66.3	
30.845	-2.75	66.3	
30.85	-2.75	66	
30.855	-2.75	66	
30.86	-2.75	65.8	
30.865	-2.25	65.5	
30.87	-2	65.5	
30.875	-2.25	65.3	
30.88	-2.25	65.3	
30.885	-1.5	64.8	
30.89	-1.25	65	
30.895	-1.5	64.8	
30.9	-1.5	64.5	
30.905	-0.25	64.5	
30.91	0	64.5	
30.915	-0.75	64.5	
30.92	-0.75	64.5	
30.925	0.5	64.3	
30.93	0.5	64	
30.935	-0.25	64	
30.94	0.25	64	
30.945	1.5	63.8	
30.95	1.75	63.8	
30.955	1	63.5	
30.96	1.25	63.5	
30.965	2.5	63.5	
30.97	3.25	63.5	
30.975	3	63.3	
30.98	3.5	63.3	
30.985	5.25	62.8	
30.99	6	63	
30.995	6	62.8	
31	6.75	62.8	
31.005	8.75	62.3	
31.01	9.5	62.3	
31.015	9.5	62.3	
31.02	10.25	62	
31.025	12	61.8	
31.03	13	61.8	
31.035	12.75	61.8	
31.04	13	62	
31.045	14.25	62.3	
31.05	14.25	62.8	
31.055	12.75	64	
31.06	12	65.5	
31.065	11.75	67.8	
31.07	10.25	70.3	
31.075	8	73.8	
31.08	6.5	77.3	
31.085	5.75	81	
31.09	4.5	85	
31.095	2	89	
31.1	0.75	92.8	
31.105	0.75	95.5	
31.11	0	98	
31.115	-1.5	99.8	
31.12	-2	101.3	
31.125	-1.5	102.3	
31.13	-1.75	103.3	
31.135	-2.75	103.8	
31.14	-3	104.8	
31.145	-2	105.5	
31.15	-2	105.8	
31.155	-3	106.5	
31.16	-3.25	106.8	
31.165	-2.25	106.8	
31.17	-2.25	106.8	
31.175	-3	106.5	
31.18	-3.25	106	
31.185	-2.5	105.5	
31.19	-2.25	105	
31.195	-3.25	104.3	
31.2	-3.25	103.8	
31.205	-2.5	102.8	
31.21	-2.25	102	
31.215	-3.5	101	
31.22	-3.5	100.3	
31.225	-2.5	99	
31.23	-2.5	98	
31.235	-3.25	97.3	
31.24	-3.5	96.3	
31.245	-2.25	95.3	
31.25	-2.25	94.5	
31.255	-3.25	93.3	
31.26	-3.25	92.5	
31.265	-2.5	92	
31.27	-2.25	91	
31.275	-3.5	90.3	
31.28	-3.5	89.8	
31.285	-2.5	89	
31.29	-2.75	88.5	
31.295	-3.5	87.8	
31.3	-3.75	87.5	
31.305	-2.75	87.3	
31.31	-2.75	86.8	
31.315	-3.5	86.3	
31.32	-3.75	85.8	
31.325	-3	85.3	
31.33	-3	85	
31.335	-3.75	84.5	
31.34	-3.75	83.8	
31.345	-2.75	83.3	
31.35	-2.75	82.8	
31.355	-3.75	82.3	
31.36	-4	82	
31.365	-3.25	81.8	
31.37	-3.25	81.5	
31.375	-4	81.5	
31.38	-4.25	81.3	
31.385	-3.25	81.3	
31.39	-3	81	
31.395	-4	81	
31.4	-4	81.3	
31.405	-3	81.3	
31.41	-3	81.5	
31.415	-3.5	81.8	
31.42	-3.5	82	
31.425	-3.25	82.3	
31.43	-3.25	82.5	
31.435	-4	82.8	
31.44	-4.25	83.3	
31.445	-3.5	83.5	
31.45	-3.5	83.8	
31.455	-3.75	84.3	
31.46	-4	84.5	
31.465	-3.5	84.8	
31.47	-3.5	85	
31.475	-3.5	85.3	
31.48	-3.75	85.3	
31.485	-3.25	85.5	
31.49	-3.25	85.3	
31.495	-3.75	85.5	
31.5	-4	85.5	
31.505	-3.5	85.3	
31.51	-3.5	85.3	
31.515	-3.75	85	
31.52	-4	85	
31.525	-3.75	85	
31.53	-3.5	84.8	
31.535	-3.75	84.5	
31.54	-4	84.3	
31.545	-3.5	84	
31.55	-3.5	83.5	
31.555	-3.75	83.5	
31.56	-3.75	83	
31.565	-3.5	82.8	
31.57	-3.5	82.5	
31.575	-4	82	
31.58	-4.25	81.8	
31.585	-3.75	81.3	
31.59	-3.75	81	
31.595	-4.25	80.8	
31.6	-4.5	80	
31.605	-3.75	79.8	
31.61	-3.5	79.5	
31.615	-4	79	
31.62	-4.25	78.5	
31.625	-3.75	78.3	
31.63	-3.75	78	
31.635	-4.25	77.5	
31.64	-4.5	77	
31.645	-3.75	76.8	
31.65	-3.5	76.5	
31.655	-3.5	76	
31.66	-3.5	75.8	
31.665	-2.75	75.5	
31.67	-2.25	75	
31.675	-1.5	75	
31.68	-1.25	74.8	
31.685	-1.25	74.3	
31.69	-1.5	74.3	
31.695	-3.5	73.8	
31.7	-3.5	73.8	
31.705	-2.5	73.3	
31.71	-3	73	
31.715	-5.75	72.8	
31.72	-8	72.8	
31.725	-8.25	72.3	
31.73	-8.75	72	
31.735	-9.75	72	
31.74	-9.75	71.8	
31.745	-7.5	71.5	
31.75	-7	71.5	
31.755	-7.5	71.3	
31.76	-7.5	71	
31.765	-6.5	70.8	
31.77	-6.5	70.8	
31.775	-6.75	70.5	
31.78	-6.75	70.3	
31.785	-6	70	
31.79	-6	69.8	
31.795	-6.25	69.8	
31.8	-6.25	69.5	
31.805	-6.25	69.5	
31.81	-7.5	69.3	
31.815	-11	69.3	
31.82	-13.75	69	
31.825	-14.5	68.8	
31.83	-10	68.5	
31.835	7	68.3	
31.84	35.25	68.3	
31.845	72.75	68.3	
31.85	84.25	68.3	
31.855	68.25	68.3	
31.86	51	68	
31.865	32.75	67.5	
31.87	12.5	67.5	
31.875	-2.5	67.3	
31.88	-9.5	67.3	
31.885	-9.5	67	
31.89	-9.75	67	
31.895	-10.5	67	
31.9	-9.25	66.8	
31.905	-6.5	66.5	
31.91	-5.25	66.5	
31.915	-5.5	66.3	
31.92	-5.25	66	
31.925	-4	66	
31.93	-3.5	66	
31.935	-4.25	66	
31.94	-4	65.8	
31.945	-2.5	65.8	
31.95	-2.5	65.3	
31.955	-3.25	65.3	
31.96	-3.5	65.3	
31.965	-2.5	65	
31.97	-2.25	65	
31.975	-3	64.8	
31.98	-2.75	64.8	
31.985	-1.5	64.8	
31.99	-1.25	64.8	
31.995	-2	64.5	
32	-2.25	64.5	
32.005	-1	64.3	
32.01	-0.75	64	
32.015	-1.25	64	
32.02	-1	64	
32.025	0	64	
32.03	0.5	63.8	
32.035	0	63.8	
32.04	0	63.8	
32.045	1.25	63.8	
32.05	1.75	63.5	
32.055	1.75	63.5	
32.06	2	63.3	
32.065	3.75	63.3	
32.07	4.5	63	
32.075	4.75	63	
32.08	5.5	62.8	
32.085	7.5	62.8	
32.09	8.5	62.5	
32.095	8.75	62.5	
32.1	9.25	62.3	
32.105	11	62.3	
32.11	12	62	
32.115	11.75	62	
32.12	12	62	
32.125	13.25	62	
32.13	13.5	62.5	
32.135	12	63.3	
32.14	11.25	64.5	
32.145	11.25	66.3	
32.15	10.25	68.8	
32.155	8	71.5	
32.16	6.5	75	
32.165	6	78.8	
32.17	4.25	82.5	
32.175	2.25	86.3	
32.18	1.25	89.8	
32.185	1	93	
32.19	0.25	95.5	
32.195	-1.25	97.5	
32.2	-2.25	99.3	
32.205	-1.5	100.3	
32.21	-1.75	101.3	
32.215	-2.75	102	
32.22	-2.75	102.8	
32.225	-1.75	103.3	
32.23	-1.75	104	
32.235	-2.75	104.5	
32.24	-3	104.8	
32.245	-1.75	105	
32.25	-1.75	105	
32.255	-2.75	104.8	
32.26	-3	104.8	
32.265	-2.25	104.3	
32.27	-2	103.8	
32.275	-3	103.3	
32.28	-3	102.5	
32.285	-2	101.8	
32.29	-2	100.8	
32.295	-2.75	100	
32.3	-2.75	99.3	
32.305	-1.75	98	
32.31	-1.75	97	
32.315	-2.75	96	
32.32	-2.75	95.3	
32.325	-1.5	94.3	
32.33	-1.75	93.3	
32.335	-2.25	92.5	
32.34	-2.5	91.3	
32.345	-1.5	90.5	
32.35	-1.5	90	
32.355	-2.5	89	
32.36	-2.75	88.5	
32.365	-2	88	
32.37	-1.75	87.3	
32.375	-2.25	86.8	
32.38	-2.5	86.3	
32.385	-1.5	85.8	
32.39	-1.5	85	
32.395	-2.5	84.5	
32.4	-3	84.3	
32.405	-1.75	83.5	
32.41	-1.25	83	
32.415	-2.25	82.3	
32.42	-2.5	82	
32.425	-1.5	81.3	
32.43	-1.75	81	
32.435	-2.5	80.8	
32.44	-2.75	80.3	
32.445	-1.75	79.8	
32.45	-2	79.8	
32.455	-3	79.3	
32.46	-3	79.3	
32.465	-2	79.3	
32.47	-1.75	79.3	
32.475	-2.5	79.5	
32.48	-2.5	79.8	
32.485	-1.75	79.8	
32.49	-1.5	80	
32.495	-2.5	80.3	
32.5	-2.75	80.5	
32.505	-1.75	80.8	
32.51	-1.5	81	
32.515	-2.5	81.8	
32.52	-2.5	82	
32.525	-1.5	82.3	
32.53	-1.25	82.5	
32.535	-1.75	83	
32.54	-1.75	83.3	
32.545	-0.75	83.5	
32.55	-0.75	83.8	
32.555	-1.75	84.3	
32.56	-2	84.5	
32.565	-1.25	84.5	
32.57	-1	84.5	
32.575	-1.75	84.8	
32.58	-2	84.8	
32.585	-1	84.5	
32.59	-0.75	84.5	
32.595	-1.5	84.3	
32.6	-2	84.3	
32.605	-1	84	
32.61	-1	84	
32.615	-2	83.8	
32.62	-2	83.3	
32.625	-1	83	
32.63	-0.75	82.8	
32.635	-1.5	82.5	
32.64	-1.75	82	
32.645	-0.5	81.8	
32.65	-0.75	81.8	
32.655	-1.5	81.3	
32.66	-1.75	81	
32.665	-0.75	80.3	
32.67	-0.75	80.3	
32.675	-1.5	79.5	
32.68	-1.75	79.3	
32.685	-0.5	79	
32.69	-0.25	78.5	
32.695	-1.25	78	
32.7	-1.75	77.8	
32.705	-0.75	77.5	
32.71	-0.75	77	
32.715	-1.5	76.8	
32.72	-1.5	76.5	
32.725	-0.25	76	
32.73	0.25	75.5	
32.735	-0.25	75.3	
32.74	0.5	74.8	
32.745	2.5	74.5	
32.75	2.75	74.5	
32.755	1	74	
32.76	-0.5	74	
32.765	-1	73.8	
32.77	-0.5	73.5	
32.775	-0.75	73.3	
32.78	-1.75	73	
32.785	-3	72.8	
32.79	-4.5	72.5	
32.795	-6.5	72.3	
32.8	-6.75	72.3	
32.805	-5.5	71.8	
32.81	-4.75	71.8	
32.815	-4.75	71.5	
32.82	-4.25	71.5	
32.825	-3.25	71	
32.83	-2.75	71	
32.835	-3.75	70.8	
32.84	-3.75	70.8	
32.845	-2.75	70.5	
32.85	-2.5	70.3	
32.855	-3.25	70	
32.86	-3.25	70	
32.865	-2.25	69.8	
32.87	-2	69.8	
32.875	-4	69.5	
32.88	-6.25	69.5	
32.885	-8	69.3	
32.89	-10.75	69.3	
32.895	-12.25	68.8	
32.9	-4.75	68.8	
32.905	16	68.5	
32.91	46.5	68.5	
32.915	82.25	68.3	
32.92	85.5	68.3	
32.925	70.5	68	
32.93	54.5	68	
32.935	34	68	
32.94	14.5	67.8	
32.945	2	67.5	
32.95	-4.25	67.3	
32.955	-6	67.3	
32.96	-7.25	67.3	
32.965	-6.75	67	
32.97	-5	67	
32.975	-4	67	
32.98	-2.75	66.8	
32.985	-1.25	66.5	
32.99	-1.25	66.5	
32.995	-1.5	66.3	
33	-1.5	66.3	
33.005	-0.75	66	
33.01	-0.5	66	
33.015	-0.5	65.8	
33.02	-0.5	65.8	
33.025	0	65.5	
33.03	0.25	65.5	
33.035	0	65.3	
33.04	-0.25	65.3	
33.045	0.5	65	
33.05	0.75	64.8	
33.055	0.75	64.8	
33.06	0.5	64.8	
33.065	1.25	64.8	
33.07	1.5	64.5	
33.075	1.25	64.5	
33.08	1.25	64.3	
33.085	1.75	64.3	
33.09	2.25	64.3	
33.095	2	64.3	
33.1	2	64.3	
33.105	2.75	64	
33.11	3	63.8	
33.115	3	63.8	
33.12	3	63.8	
33.125	4.5	63.8	
33.13	5.25	63.3	
33.135	5.25	63.5	
33.14	5.25	63.3	
33.145	7	63	
33.15	8	63	
33.155	8	63	
33.16	8.5	62.8	
33.165	10.25	62.8	
33.17	11.25	62.5	
33.175	11.25	62.5	
33.18	11.5	62.3	
33.185	13.25	62.3	
33.19	13.75	62	
33.195	13.75	62.3	
33.2	13.5	62.8	
33.205	13.5	63.5	
33.21	13.25	64.8	
33.215	11.5	66.5	
33.22	10	69	
33.225	9.5	71.8	
33.23	8.25	75	
33.235	6	78.5	
33.24	4.75	82	
33.245	4.25	86	
33.25	3.25	89.3	
33.255	1.5	92.5	
33.26	0.5	95	
33.265	0.5	97	
33.27	0.5	98.8	
33.275	-0.75	100	
33.28	-1.25	101	
33.285	-0.75	101.8	
33.29	-0.75	102.5	
33.295	-1.25	103.5	
33.3	-1.5	103.8	
33.305	-1.25	104.3	
33.31	-1	104.8	
33.315	-1.5	104.8	
33.32	-1.5	105	
33.325	-1.25	104.8	
33.33	-1	104.3	
33.335	-1.75	104	
33.34	-2	103.8	
33.345	-1.25	103	
33.35	-1.25	102.3	
33.355	-1.75	101.5	
33.36	-1.75	100.8	
33.365	-1.5	99.8	
33.37	-1.5	98.8	
33.375	-2	97.8	
33.38	-2.25	96.8	
33.385	-2	96	
33.39	-1.75	95	
33.395	-2.25	94	
33.4	-2.25	93	
33.405	-1.75	92.3	
33.41	-1.75	91.3	
33.415	-2.5	90.3	
33.42	-2.5	89.5	
33.425	-1.75	88.8	
33.43	-1.75	88	
33.435	-2.75	87.3	
33.44	-3	86.8	
33.445	-2	86	
33.45	-1.75	85.5	
33.455	-2.75	85	
33.46	-3	84.8	
33.465	-1.75	84	
33.47	-1.75	83.8	
33.475	-2.75	83.3	
33.48	-3	82.3	
33.485	-2	81.8	
33.49	-2	81	
33.495	-2.75	80.5	
33.5	-3	80	
33.505	-2	79.8	
33.51	-2	79.5	
33.515	-3	79	
33.52	-3	79	
33.525	-2	78.8	
33.53	-2	78.5	
33.535	-3	78.5	
33.54	-3.25	78.5	
33.545	-2	78.8	
33.55	-2.25	78.8	
33.555	-3.25	79	
33.56	-3.25	79.3	
33.565	-2.25	79.5	
33.57	-2.25	79.8	
33.575	-3.25	80	
33.58	-3.5	80.3	
33.585	-2.5	80.8	
33.59	-2.25	81.3	
33.595	-3.25	81.5	
33.6	-3.5	82	
33.605	-2.5	82.3	
33.61	-2.25	82.5	
33.615	-3	83	
33.62	-3.25	83.3	
33.625	-2.25	83.5	
33.63	-2	83.8	
33.635	-3	84	
33.64	-3	83.8	
33.645	-2	84	
33.65	-1.75	84	
33.655	-2.75	83.8	
33.66	-2.75	84	
33.665	-2	83.8	
33.67	-1.75	83.8	
33.675	-3	83.5	
33.68	-3	83.3	
33.685	-2	83	
33.69	-1.75	82.8	
33.695	-2.5	82.5	
33.7	-2.75	82.3	
33.705	-1.75	81.8	
33.71	-1.75	81.8	
33.715	-2.5	81.3	
33.72	-2.75	81	
33.725	-1.75	80.5	
33.73	-1.75	80.3	
33.735	-2.5	79.8	
33.74	-2.75	79.5	
33.745	-1.75	79	
33.75	-1.75	78.5	
33.755	-2.75	78.3	
33.76	-3	77.8	
33.765	-1.75	77.3	
33.77	-1.5	77	
33.775	-2.25	76.8	
33.78	-2.5	76.3	
33.785	-1.5	76	
33.79	-1.5	75.5	
33.795	-2.5	75.3	
33.8	-2.5	75	
33.805	-1.5	74.5	
33.81	-1	74.5	
33.815	-1.75	74	
33.82	-1.25	73.8	
33.825	1.25	73.3	
33.83	3	73	
33.835	2.25	73	
33.84	1	72.5	
33.845	1.25	72.5	
33.85	1	72	
33.855	0.25	72	
33.86	-0.5	71.8	
33.865	-1.25	71.5	
33.87	-3.5	71.3	
33.875	-5.75	71	
33.88	-6.75	70.8	
33.885	-6.25	70.8	
33.89	-5.75	70.3	
33.895	-5.75	70.3	
33.9	-5.25	70.3	
33.905	-4.25	70	
33.91	-4.25	69.5	
33.915	-4.75	69.3	
33.92	-5	69.3	
33.925	-4.5	69	
33.93	-4.25	69	
33.935	-4.5	68.8	
33.94	-4.5	68.8	
33.945	-3.75	68.8	
33.95	-3.5	68.3	
33.955	-3.75	68.3	
33.96	-5	68	
33.965	-6.25	68	
33.97	-8.75	68	
33.975	-12.25	67.5	
33.98	-12.5	67.5	
33.985	-2.25	67.3	
33.99	20	67.3	
33.995	51.5	67	
34	84.75	67	
34.005	84.75	66.8	
34.01	67.25	66.8	
34.015	47.75	66.5	
34.02	26.25	66.3	
34.025	8.5	66	
34.03	-3	65.8	
34.035	-7.5	65.8	
34.04	-8	65.8	
34.045	-8	65.8	
34.05	-7.25	65.5	
34.055	-6.25	65.5	
34.06	-4.75	65.5	
34.065	-3	65.3	
34.07	-2.25	65	
34.075	-2.25	65	
34.08	-2.5	64.8	
34.085	-2	64.8	
34.09	-1.5	64.5	
34.095	-1.75	64.5	
34.1	-1.75	64.3	
34.105	-1	64	
34.11	-0.75	64	
34.115	-1	63.8	
34.12	-1	63.8	
34.125	-0.25	63.8	
34.13	0	63.8	
34.135	0	63.8	
34.14	0	63.5	
34.145	0.5	63.3	
34.15	0.75	63.3	
34.155	0.5	63	
34.16	0.5	63	
34.165	1.25	62.8	
34.17	1.75	62.8	
34.175	1.5	62.8	
34.18	1.5	62.8	
34.185	2.25	62.5	
34.19	2.75	62.5	
34.195	2.75	62.5	
34.2	2.75	62.3	
34.205	4	62.3	
34.21	5	62.3	
34.215	5	61.8	
34.22	5.5	62	
34.225	7.5	61.8	
34.23	8.25	61.8	
34.235	8.25	61.3	
34.24	9	61.5	
34.245	11	61.3	
34.25	12	60.8	
34.255	12	60.8	
34.26	12.75	60.8	
34.265	14.5	60.8	
34.27	15.25	60.8	
34.275	15.25	60.8	
34.28	15.25	61	
34.285	15.5	61.8	
34.29	15.5	63	
34.295	13.5	64.3	
34.3	12.25	66.3	
34.305	11.75	69	
34.31	10.25	72	
34.315	7.75	75.5	
34.32	6	79	
34.325	5.75	83	
34.33	4.25	86.8	
34.335	2.5	90.3	
34.34	1.5	93	
34.345	1.5	95.5	
34.35	1.25	97.5	
34.355	0	98.8	
34.36	-0.5	100	
34.365	-0.25	100.8	
34.37	-0.25	101.5	
34.375	-1	102.3	
34.38	-1.25	103	
34.385	-0.75	103.5	
34.39	-0.75	104	
34.395	-1.25	104.5	
34.4	-1.5	104.8	
34.405	-0.75	104.5	
34.41	-0.75	104.3	
34.415	-1.5	104	
34.42	-2	103.5	
34.425	-1	103	
34.43	-0.5	102.8	
34.435	-1.5	102	
34.44	-1.75	101.3	
34.445	-0.5	100.5	
34.45	-0.75	99.5	
34.455	-1.75	98.5	
34.46	-2	97.5	
34.465	-1	96.5	
34.47	-1	95.5	
34.475	-2	94.5	
34.48	-2.25	93.8	
34.485	-1.25	92.5	
34.49	-1	91.8	
34.495	-1.75	91	
34.5	-2	90.3	
34.505	-1	89.3	
34.51	-1	88.5	
34.515	-2	87.8	
34.52	-2.25	87	
34.525	-1.25	86.5	
34.53	-1	86	
34.535	-2	85.5	
34.54	-2.25	85	
34.545	-1.25	84.5	
34.55	-1.25	84	
34.555	-2	83.3	
34.56	-2.5	83	
34.565	-1.25	82.3	
34.57	-1	81.8	
34.575	-2	81.3	
34.58	-2.25	81	
34.585	-1.25	80.5	
34.59	-1	80	
34.595	-1.75	79.8	
34.6	-2	79.3	
34.605	-1	79	
34.61	-1	78.8	
34.615	-2	78.5	
34.62	-2.25	78.5	
34.625	-1.5	78.5	
34.63	-1.25	78.5	
34.635	-2	78.8	
34.64	-2.5	78.8	
34.645	-1	78.8	
34.65	-1.25	79	
34.655	-2.25	79.3	
34.66	-2.5	79.8	
34.665	-1.5	80	
34.67	-1.25	80.5	
34.675	-2	80.8	
34.68	-2.25	81	
34.685	-1.25	81.3	
34.69	-1.5	81.5	
34.695	-2.25	82	
34.7	-2.5	82.3	
34.705	-1.5	82.5	
34.71	-1.5	82.8	
34.715	-2.25	83	
34.72	-2.5	83.3	
34.725	-1.25	83.3	
34.73	-1.25	83.3	
34.735	-2.25	83.3	
34.74	-2.5	83.3	
34.745	-1.75	83.3	
34.75	-1.5	83	
34.755	-2.5	83	
34.76	-2.5	82.8	
34.765	-1.75	82.5	
34.77	-1.75	82.5	
34.775	-2.75	82.3	
34.78	-2.75	82.3	
34.785	-1.75	82	
34.79	-1.5	81.5	
34.795	-2.5	81.3	
34.8	-3.25	81	
34.805	-2	80.8	
34.81	-1.75	80.3	
34.815	-2.25	80	
34.82	-2.5	79.5	
34.825	-1.5	79.3	
34.83	-1.5	79	
34.835	-2.5	78.5	
34.84	-2.75	78.3	
34.845	-1.5	77.8	
34.85	-1.5	77.5	
34.855	-2.25	76.8	
34.86	-2.5	76.5	
34.865	-1.5	76	
34.87	-1.25	75.8	
34.875	-2.5	75.5	
34.88	-2.75	75.3	
34.885	-1.75	75	
34.89	-1.75	74.5	
34.895	-2.5	74.3	
34.9	-2	73.8	
34.905	-1	73.5	
34.91	-1	73.3	
34.915	-1	72.8	
34.92	0	72.5	
34.925	2.25	72.5	
34.93	2	72	
34.935	0	72	
34.94	-1.25	71.5	
34.945	-1	71.3	
34.95	-0.25	71	
34.955	-1	70.5	
34.96	-3.5	70.5	
34.965	-4.5	70.3	
34.97	-5.75	70.3	
34.975	-7.25	70.3	
34.98	-7.75	70	
34.985	-7	69.8	
34.99	-5.5	69.5	
34.995	-5.5	69.3	
35	-5.5	69	
35.005	-5.25	69	
35.01	-4.75	68.5	
35.015	-5	68.3	
35.02	-5.25	68.3	
35.025	-4.75	68	
35.03	-4.25	68	
35.035	-4.5	67.8	
35.04	-4.75	67.8	
35.045	-4.25	67.5	
35.05	-4.25	67.5	
35.055	-6	67	
35.06	-8.5	67	
35.065	-10.5	67	
35.07	-12.5	66.8	
35.075	-12.5	66.8	
35.08	-0.25	66.5	
35.085	24.5	66.3	
35.09	59.25	66	
35.095	85.5	66	
35.1	76.5	65.8	
35.105	61	65.8	
35.11	44	65.8	
35.115	22.75	65.5	
35.12	5.25	65.5	
35.125	-4.25	65.3	
35.13	-7.5	65.3	
35.135	-8.75	64.8	
35.14	-9.75	64.8	
35.145	-8.25	64.8	
35.15	-6	64.5	
35.155	-5	64.5	
35.16	-4.75	64.3	
35.165	-3.5	64.3	
35.17	-3.25	64.3	
35.175	-3.25	64.3	
35.18	-3.25	64	
35.185	-2.5	63.8	
35.19	-2	63.5	
35.195	-2.25	63.5	
35.2	-2.25	63.3	
35.205	-1.5	63.3	
35.21	-1	63	
35.215	-1.25	63	
35.22	-1.25	62.8	
35.225	-0.75	62.8	
35.23	-0.5	62.8	
35.235	-0.5	62.5	
35.24	-0.75	62.5	
35.245	-0.25	62.5	
35.25	0	62	
35.255	-0.25	62	
35.26	-0.25	62	
35.265	0.5	62	
35.27	1	62	
35.275	0.75	62	
35.28	0.75	61.5	
35.285	1.25	61.5	
35.29	2	61.5	
35.295	2	61.3	
35.3	2	61.5	
35.305	3.75	61	
35.31	4.5	61	
35.315	4.5	61	
35.32	5	61	
35.325	6.75	60.8	
35.33	7.75	60.8	
35.335	7.75	60.5	
35.34	7.75	60.5	
35.345	9.75	60.3	
35.35	11	60.3	
35.355	11	60	
35.36	11.25	60	
35.365	13	60	
35.37	13.25	60	
35.375	13.25	60.3	
35.38	13	60.8	
35.385	13	61.8	
35.39	12.75	63.3	
35.395	10.75	65	
35.4	9.25	67.8	
35.405	8.25	70.5	
35.41	7	73.8	
35.415	4.75	77.3	
35.42	3	80.8	
35.425	3	84.5	
35.43	2	87.8	
35.435	0.25	90.8	
35.44	-0.75	93.3	
35.445	-0.5	95	
35.45	-0.5	96.5	
35.455	-1.75	97.8	
35.46	-2	98.8	
35.465	-1.25	99.3	
35.47	-1.25	100.3	
35.475	-2.25	101	
35.48	-2.5	101.3	
35.485	-1.75	101.8	
35.49	-1.5	102.3	
35.495	-2.5	102.5	
35.5	-2.75	102.5	
35.505	-2	102.5	
35.51	-1.75	102.3	
35.515	-2.75	101.8	
35.52	-3	101.5	
35.525	-2	100.8	
35.53	-1.75	100	
35.535	-2.75	99.5	
35.54	-3	98.3	
35.545	-2	97.5	
35.55	-1.75	96.8	
35.555	-2.5	95.8	
35.56	-2.75	94.8	
35.565	-1.5	93.8	
35.57	-1.5	92.8	
35.575	-2.5	91.8	
35.58	-2.75	90.8	
35.585	-1.75	89.8	
35.59	-2	89	
35.595	-3	88.5	
35.6	-3.25	87.5	
35.605	-2.25	86.8	
35.61	-2.25	86	
35.615	-3.25	85	
35.62	-3.5	84.5	
35.625	-2.5	83.8	
35.63	-2.25	83.3	
35.635	-3	82.8	
35.64	-3.25	82.3	
35.645	-2.5	81.8	
35.65	-2	81.3	
35.655	-3	80.8	
35.66	-3.25	80.3	
35.665	-2.5	79.5	
35.67	-2	78.8	
35.675	-3	78.5	
35.68	-3.5	77.8	
35.685	-2.5	77.5	
35.69	-2.5	77.3	
35.695	-3.25	76.8	
35.7	-3.75	76.5	
35.705	-2.75	76.3	
35.71	-2.75	76.3	
35.715	-3.5	76.3	
35.72	-3.75	76	
35.725	-2.75	76.3	
35.73	-2.5	76.3	
35.735	-3.5	76.8	
35.74	-3.75	76.8	
35.745	-3	77.3	
35.75	-2.75	77.5	
35.755	-3.5	78	
35.76	-3.75	78.3	
35.765	-2.75	78.5	
35.77	-2.5	79	
35.775	-3.25	79.3	
35.78	-3.75	79.8	
35.785	-2.75	80	
35.79	-2.5	80.5	
35.795	-3.25	80.8	
35.8	-3.75	81	
35.805	-2.75	81.5	
35.81	-2.5	81.8	
35.815	-3.5	81.8	
35.82	-3.75	82	
35.825	-2.75	82	
35.83	-2.5	82	
35.835	-3.75	82	
35.84	-3.75	82	
35.845	-2.75	82.3	
35.85	-2.5	81.8	
35.855	-3.5	82	
35.86	-3.75	81.8	
35.865	-3	81.5	
35.87	-2.5	81.3	
35.875	-3.25	81	
35.88	-3.75	80.8	
35.885	-2.75	80.5	
35.89	-2.5	80.3	
35.895	-3.25	79.8	
35.9	-3.75	79.5	
35.905	-3	79	
35.91	-2.75	79	
35.915	-3	78.5	
35.92	-3.5	78.3	
35.925	-3	77.5	
35.93	-2.75	77.3	
35.935	-3	77	
35.94	-3.5	76.5	
35.945	-3	76.3	
35.95	-2.75	76	
35.955	-3.25	75.3	
35.96	-3.5	75	
35.965	-2.75	74.8	
35.97	-2.5	74.3	
35.975	-2.5	74	
35.98	-2.5	73.8	
35.985	0	73.3	
35.99	1.5	73	
35.995	0.75	72.5	
36	0	72.5	
36.005	0	72.3	
36.01	0	71.8	
36.015	-0.75	71.8	
36.02	-2	71.3	
36.025	-3.25	71	
36.03	-5.25	70.8	
36.035	-7.25	70.5	
36.04	-8.25	70.3	
36.045	-8.25	70	
36.05	-7.5	69.8	
36.055	-7.25	69.8	
36.06	-7.25	69.5	
36.065	-6.5	69.5	
36.07	-6.25	69	
36.075	-6.5	68.8	
36.08	-6.75	68.5	
36.085	-6	68.5	
36.09	-5.25	68	
